# TOPAS Version: 3.9
# Parameter File: pristine_temp.txt
# Results for scorer: DosePhantom
# Scored in component: Phantom
# X in 1 bin  of 30 cm
# Y in 1 bin  of 30 cm
# Z in 301 bins of 0.0996678 cm
# DoseToMedium ( Gy ) : Sum   
0, 0, 0, 1.154307724959835e-07
0, 0, 1, 1.174988923935416e-07
0, 0, 2, 1.179654347538417e-07
0, 0, 3, 1.187703588811928e-07
0, 0, 4, 1.190764535863309e-07
0, 0, 5, 1.198489201215125e-07
0, 0, 6, 1.202741373163008e-07
0, 0, 7, 1.214480960243236e-07
0, 0, 8, 1.219244296635225e-07
0, 0, 9, 1.219117393702618e-07
0, 0, 10, 1.234308086850433e-07
0, 0, 11, 1.241715779087826e-07
0, 0, 12, 1.24521193356486e-07
0, 0, 13, 1.253145285318169e-07
0, 0, 14, 1.255982624570606e-07
0, 0, 15, 1.260129778302144e-07
0, 0, 16, 1.26747494277879e-07
0, 0, 17, 1.269674356763062e-07
0, 0, 18, 1.278776693425243e-07
0, 0, 19, 1.284127648659705e-07
0, 0, 20, 1.292515179329712e-07
0, 0, 21, 1.294083915581723e-07
0, 0, 22, 1.297343459327749e-07
0, 0, 23, 1.31486359578048e-07
0, 0, 24, 1.325088305748068e-07
0, 0, 25, 1.329267291794167e-07
0, 0, 26, 1.330961652001861e-07
0, 0, 27, 1.340210928901797e-07
0, 0, 28, 1.340444697461862e-07
0, 0, 29, 1.345111684258882e-07
0, 0, 30, 1.348861644601129e-07
0, 0, 31, 1.361462125260005e-07
0, 0, 32, 1.366754389664493e-07
0, 0, 33, 1.377491685161658e-07
0, 0, 34, 1.38370140234656e-07
0, 0, 35, 1.396831947886312e-07
0, 0, 36, 1.400918279159669e-07
0, 0, 37, 1.40983900109859e-07
0, 0, 38, 1.410658398981468e-07
0, 0, 39, 1.417808732639969e-07
0, 0, 40, 1.429652343176713e-07
0, 0, 41, 1.436210368410684e-07
0, 0, 42, 1.444282986540202e-07
0, 0, 43, 1.454008469181645e-07
0, 0, 44, 1.458112137697753e-07
0, 0, 45, 1.468739299070876e-07
0, 0, 46, 1.475546014262363e-07
0, 0, 47, 1.488308356556445e-07
0, 0, 48, 1.496564010494694e-07
0, 0, 49, 1.505004689761336e-07
0, 0, 50, 1.514222986997993e-07
0, 0, 51, 1.533178277668412e-07
0, 0, 52, 1.535859723844624e-07
0, 0, 53, 1.545647734246813e-07
0, 0, 54, 1.555183075652167e-07
0, 0, 55, 1.561794960025509e-07
0, 0, 56, 1.572197021459942e-07
0, 0, 57, 1.585220132938048e-07
0, 0, 58, 1.597401251274277e-07
0, 0, 59, 1.606416049071413e-07
0, 0, 60, 1.618656142454711e-07
0, 0, 61, 1.632257919936819e-07
0, 0, 62, 1.640922988599414e-07
0, 0, 63, 1.646704816948841e-07
0, 0, 64, 1.670094178507497e-07
0, 0, 65, 1.680814705196099e-07
0, 0, 66, 1.6999405261231e-07
0, 0, 67, 1.716028634746181e-07
0, 0, 68, 1.739879564865987e-07
0, 0, 69, 1.748481111008005e-07
0, 0, 70, 1.759740371198859e-07
0, 0, 71, 1.775385243263372e-07
0, 0, 72, 1.801168281190257e-07
0, 0, 73, 1.82471652010463e-07
0, 0, 74, 1.837871224097398e-07
0, 0, 75, 1.861641436562422e-07
0, 0, 76, 1.883575180272601e-07
0, 0, 77, 1.910034796992477e-07
0, 0, 78, 1.934768931732833e-07
0, 0, 79, 1.961584956688966e-07
0, 0, 80, 1.982366484298836e-07
0, 0, 81, 2.00717309439824e-07
0, 0, 82, 2.042058042661665e-07
0, 0, 83, 2.079706575841556e-07
0, 0, 84, 2.109362924329616e-07
0, 0, 85, 2.149109690208206e-07
0, 0, 86, 2.190938914736762e-07
0, 0, 87, 2.227194499937468e-07
0, 0, 88, 2.271828520861163e-07
0, 0, 89, 2.326493984128319e-07
0, 0, 90, 2.384601884841686e-07
0, 0, 91, 2.444569702220178e-07
0, 0, 92, 2.506450584860431e-07
0, 0, 93, 2.572219841567858e-07
0, 0, 94, 2.658169364622154e-07
0, 0, 95, 2.745030371897883e-07
0, 0, 96, 2.844031996573904e-07
0, 0, 97, 2.957562230676558e-07
0, 0, 98, 3.102934726939566e-07
0, 0, 99, 3.267734882683726e-07
0, 0, 100, 3.464724898094573e-07
0, 0, 101, 3.715975083196099e-07
0, 0, 102, 4.027965303521341e-07
0, 0, 103, 4.454039412848942e-07
0, 0, 104, 5.066647190687945e-07
0, 0, 105, 5.892997023693169e-07
0, 0, 106, 6.28579016392905e-07
0, 0, 107, 5.14012128860486e-07
0, 0, 108, 2.684636228877935e-07
0, 0, 109, 7.930338341566312e-08
0, 0, 110, 1.140052852122153e-08
0, 0, 111, 1.090352585997323e-09
0, 0, 112, 5.249047863031819e-10
0, 0, 113, 5.079527909401804e-10
0, 0, 114, 6.447508638096622e-10
0, 0, 115, 6.260916785016946e-10
0, 0, 116, 4.486126747860197e-10
0, 0, 117, 3.615523991307157e-10
0, 0, 118, 4.02589600545511e-10
0, 0, 119, 4.304377965169692e-10
0, 0, 120, 4.556287847012896e-10
0, 0, 121, 5.254161550283243e-10
0, 0, 122, 5.043963025030962e-10
0, 0, 123, 4.723488267188714e-10
0, 0, 124, 4.014789611872516e-10
0, 0, 125, 4.033718914442375e-10
0, 0, 126, 4.257935115603573e-10
0, 0, 127, 4.456462976420994e-10
0, 0, 128, 4.025632327486761e-10
0, 0, 129, 3.381587232453853e-10
0, 0, 130, 3.185086361323641e-10
0, 0, 131, 4.00661726018825e-10
0, 0, 132, 4.19445228549975e-10
0, 0, 133, 4.687328303276672e-10
0, 0, 134, 5.711857098411599e-10
0, 0, 135, 4.255712449108273e-10
0, 0, 136, 4.081125992705381e-10
0, 0, 137, 3.371287971010162e-10
0, 0, 138, 5.278130155161875e-10
0, 0, 139, 3.113039548363616e-10
0, 0, 140, 3.571659634715729e-10
0, 0, 141, 3.346463661735299e-10
0, 0, 142, 4.645759332788657e-10
0, 0, 143, 4.09497241671275e-10
0, 0, 144, 3.806668313899308e-10
0, 0, 145, 2.97036895080538e-10
0, 0, 146, 4.272626974444194e-10
0, 0, 147, 3.515047142244043e-10
0, 0, 148, 3.627313727161408e-10
0, 0, 149, 2.712258195813888e-10
0, 0, 150, 2.478604266276108e-10
0, 0, 151, 3.569539941405964e-10
0, 0, 152, 4.236074824248703e-10
0, 0, 153, 3.778107826590826e-10
0, 0, 154, 2.645525465361231e-10
0, 0, 155, 3.863352415756083e-10
0, 0, 156, 3.998678888006424e-10
0, 0, 157, 3.020798056141416e-10
0, 0, 158, 2.193043940890149e-10
0, 0, 159, 2.875064353258239e-10
0, 0, 160, 2.623708750260079e-10
0, 0, 161, 2.975800994509115e-10
0, 0, 162, 3.103948487126473e-10
0, 0, 163, 2.546441113526754e-10
0, 0, 164, 2.632840612193377e-10
0, 0, 165, 4.225053917839006e-10
0, 0, 166, 2.761366413306376e-10
0, 0, 167, 2.007550237159705e-10
0, 0, 168, 2.165584794822095e-10
0, 0, 169, 2.763859696663928e-10
0, 0, 170, 3.055320718647891e-10
0, 0, 171, 3.061680076132944e-10
0, 0, 172, 2.436947310613391e-10
0, 0, 173, 3.388909430857012e-10
0, 0, 174, 2.831472833975113e-10
0, 0, 175, 2.660275610910645e-10
0, 0, 176, 1.806216287647544e-10
0, 0, 177, 2.90687363069253e-10
0, 0, 178, 3.207618615164165e-10
0, 0, 179, 2.856803127393448e-10
0, 0, 180, 2.771299023596185e-10
0, 0, 181, 2.626999451305068e-10
0, 0, 182, 2.156218814608479e-10
0, 0, 183, 2.448946045952027e-10
0, 0, 184, 2.580545221952946e-10
0, 0, 185, 2.009775540434688e-10
0, 0, 186, 1.627593754216505e-10
0, 0, 187, 2.371692842118023e-10
0, 0, 188, 2.233011830998777e-10
0, 0, 189, 3.052242902867874e-10
0, 0, 190, 2.666945830842593e-10
0, 0, 191, 2.393927556187947e-10
0, 0, 192, 2.557422607019078e-10
0, 0, 193, 1.989276104952253e-10
0, 0, 194, 2.454458303269291e-10
0, 0, 195, 2.479061123050741e-10
0, 0, 196, 2.778249019730339e-10
0, 0, 197, 2.407930799197544e-10
0, 0, 198, 2.23621773876026e-10
0, 0, 199, 2.637455531750987e-10
0, 0, 200, 2.422643474719877e-10
0, 0, 201, 2.688937961181637e-10
0, 0, 202, 3.088406752560502e-10
0, 0, 203, 3.08739089849297e-10
0, 0, 204, 2.388323150359639e-10
0, 0, 205, 1.912024427674908e-10
0, 0, 206, 1.810265687351986e-10
0, 0, 207, 2.212218325192694e-10
0, 0, 208, 2.309595154015298e-10
0, 0, 209, 2.111384955760798e-10
0, 0, 210, 1.645359681834435e-10
0, 0, 211, 1.828286549931946e-10
0, 0, 212, 2.403628684977122e-10
0, 0, 213, 3.066878417889995e-10
0, 0, 214, 1.676083577484277e-10
0, 0, 215, 2.22500851077001e-10
0, 0, 216, 1.511983316326848e-10
0, 0, 217, 1.497093699009966e-10
0, 0, 218, 1.69092115309688e-10
0, 0, 219, 1.524479847914151e-10
0, 0, 220, 1.572878216560269e-10
0, 0, 221, 1.081606471053931e-10
0, 0, 222, 1.413722056087252e-10
0, 0, 223, 1.895952977948312e-10
0, 0, 224, 1.867939691813092e-10
0, 0, 225, 1.961282802831477e-10
0, 0, 226, 1.893867840330188e-10
0, 0, 227, 2.261155013227878e-10
0, 0, 228, 2.054598435830002e-10
0, 0, 229, 1.455450066023545e-10
0, 0, 230, 1.760912665682568e-10
0, 0, 231, 1.161091431334249e-10
0, 0, 232, 1.584438830137813e-10
0, 0, 233, 9.698776504141193e-11
0, 0, 234, 1.105732588824182e-10
0, 0, 235, 1.100994156955082e-10
0, 0, 236, 1.400431992593099e-10
0, 0, 237, 1.378668706975006e-10
0, 0, 238, 1.39862593728779e-10
0, 0, 239, 1.779131980628179e-10
0, 0, 240, 1.450642245215406e-10
0, 0, 241, 1.463615478813907e-10
0, 0, 242, 1.599899240867231e-10
0, 0, 243, 1.617007638898826e-10
0, 0, 244, 1.642048025329856e-10
0, 0, 245, 1.479162348161367e-10
0, 0, 246, 1.397589544094302e-10
0, 0, 247, 1.245937242266848e-10
0, 0, 248, 1.525247289579923e-10
0, 0, 249, 1.400612542612478e-10
0, 0, 250, 1.397695015281641e-10
0, 0, 251, 1.655179882043001e-10
0, 0, 252, 1.462383131256573e-10
0, 0, 253, 1.209854161299262e-10
0, 0, 254, 1.381033620795336e-10
0, 0, 255, 2.202297094688888e-10
0, 0, 256, 1.140331440385722e-10
0, 0, 257, 1.545187866547337e-10
0, 0, 258, 1.67586028387845e-10
0, 0, 259, 1.57906368536409e-10
0, 0, 260, 7.928273315638279e-11
0, 0, 261, 1.274623323554991e-10
0, 0, 262, 1.707740199252683e-10
0, 0, 263, 8.874300599925888e-11
0, 0, 264, 1.105797883815818e-10
0, 0, 265, 1.080481815129986e-10
0, 0, 266, 1.083633668907957e-10
0, 0, 267, 1.37743288997072e-10
0, 0, 268, 1.017077047582582e-10
0, 0, 269, 1.412225475450057e-10
0, 0, 270, 1.461297333138489e-10
0, 0, 271, 1.778125147122722e-10
0, 0, 272, 1.655001413691792e-10
0, 0, 273, 1.35821770497202e-10
0, 0, 274, 1.334029553490268e-10
0, 0, 275, 1.672055410795181e-10
0, 0, 276, 1.127590243399368e-10
0, 0, 277, 1.508718844300816e-10
0, 0, 278, 8.004463064592571e-11
0, 0, 279, 7.152121256348565e-11
0, 0, 280, 1.214466999188701e-10
0, 0, 281, 9.636828141035281e-11
0, 0, 282, 9.893939140193098e-11
0, 0, 283, 8.624777975141384e-11
0, 0, 284, 5.297950619875813e-11
0, 0, 285, 6.906829969066663e-11
0, 0, 286, 6.295410026613268e-11
0, 0, 287, 1.387875647740344e-10
0, 0, 288, 5.49006291816756e-11
0, 0, 289, 8.173824117552186e-11
0, 0, 290, 8.575751220263328e-11
0, 0, 291, 8.525827266403496e-11
0, 0, 292, 6.269221253241142e-11
0, 0, 293, 8.152409303185948e-11
0, 0, 294, 1.201871241418573e-10
0, 0, 295, 5.648403272884295e-11
0, 0, 296, 6.254458062571189e-11
0, 0, 297, 1.167363428145052e-10
0, 0, 298, 1.569586544070134e-10
0, 0, 299, 9.015841545556569e-11
0, 0, 300, 4.479555268388502e-11
