# TOPAS Version: 3.9
# Parameter File: pristine_temp.txt
# Results for scorer: DosePhantom
# Scored in component: Phantom
# X in 1 bin  of 30 cm
# Y in 1 bin  of 30 cm
# Z in 301 bins of 0.0996678 cm
# DoseToMedium ( Gy ) : Sum   
0, 0, 0, 8.385180905179368e-08
0, 0, 1, 8.57650874763749e-08
0, 0, 2, 8.620786928759117e-08
0, 0, 3, 8.643345950076764e-08
0, 0, 4, 8.719773347820592e-08
0, 0, 5, 8.773876203349573e-08
0, 0, 6, 8.808167706320091e-08
0, 0, 7, 8.877218959923994e-08
0, 0, 8, 8.884645552598158e-08
0, 0, 9, 8.909530180289948e-08
0, 0, 10, 8.947661456204514e-08
0, 0, 11, 9.071742823607565e-08
0, 0, 12, 9.004195788975267e-08
0, 0, 13, 9.10108610696625e-08
0, 0, 14, 9.067503015103284e-08
0, 0, 15, 9.089825425689924e-08
0, 0, 16, 9.223553121273653e-08
0, 0, 17, 9.220160990253135e-08
0, 0, 18, 9.199841599638603e-08
0, 0, 19, 9.238442544301506e-08
0, 0, 20, 9.191677463604719e-08
0, 0, 21, 9.239264642246781e-08
0, 0, 22, 9.243212417686664e-08
0, 0, 23, 9.279278856411111e-08
0, 0, 24, 9.429087555190563e-08
0, 0, 25, 9.410309331769895e-08
0, 0, 26, 9.389405875026569e-08
0, 0, 27, 9.477430751303473e-08
0, 0, 28, 9.437265191536426e-08
0, 0, 29, 9.484110563562353e-08
0, 0, 30, 9.468955397551326e-08
0, 0, 31, 9.52205567728015e-08
0, 0, 32, 9.471268924698961e-08
0, 0, 33, 9.476658391349702e-08
0, 0, 34, 9.521194499484409e-08
0, 0, 35, 9.5428880797499e-08
0, 0, 36, 9.632547914861789e-08
0, 0, 37, 9.637095388370653e-08
0, 0, 38, 9.628809038986219e-08
0, 0, 39, 9.616525176170398e-08
0, 0, 40, 9.704613290750785e-08
0, 0, 41, 9.737669870446553e-08
0, 0, 42, 9.793298971771947e-08
0, 0, 43, 9.806589673644339e-08
0, 0, 44, 9.787942190087051e-08
0, 0, 45, 9.810703005541654e-08
0, 0, 46, 9.794539579388584e-08
0, 0, 47, 9.817017598834354e-08
0, 0, 48, 9.816916701765876e-08
0, 0, 49, 9.871752126855426e-08
0, 0, 50, 9.889257057693612e-08
0, 0, 51, 9.943546785962099e-08
0, 0, 52, 9.919881449604873e-08
0, 0, 53, 9.928523070357187e-08
0, 0, 54, 9.909210518799227e-08
0, 0, 55, 1.000748497403947e-07
0, 0, 56, 9.892313812542852e-08
0, 0, 57, 1.009190881973154e-07
0, 0, 58, 9.99999585360456e-08
0, 0, 59, 1.001931480004714e-07
0, 0, 60, 9.997017258456253e-08
0, 0, 61, 9.984687920905344e-08
0, 0, 62, 1.010949617352708e-07
0, 0, 63, 1.008003991387341e-07
0, 0, 64, 1.007608219083522e-07
0, 0, 65, 1.010364769626904e-07
0, 0, 66, 1.01460351231708e-07
0, 0, 67, 1.012291619417738e-07
0, 0, 68, 1.015836730289266e-07
0, 0, 69, 1.01523099260703e-07
0, 0, 70, 1.020672257823207e-07
0, 0, 71, 1.019726951767552e-07
0, 0, 72, 1.023788911425072e-07
0, 0, 73, 1.033033498742952e-07
0, 0, 74, 1.038542052356206e-07
0, 0, 75, 1.023762976615217e-07
0, 0, 76, 1.031829270914386e-07
0, 0, 77, 1.027887108762116e-07
0, 0, 78, 1.030323915074405e-07
0, 0, 79, 1.039223320731253e-07
0, 0, 80, 1.035577810171162e-07
0, 0, 81, 1.035075172239885e-07
0, 0, 82, 1.032112422194587e-07
0, 0, 83, 1.035325709608514e-07
0, 0, 84, 1.041506436649797e-07
0, 0, 85, 1.040100556792822e-07
0, 0, 86, 1.039906081246045e-07
0, 0, 87, 1.046587740916038e-07
0, 0, 88, 1.04421950197775e-07
0, 0, 89, 1.052160598646878e-07
0, 0, 90, 1.04904465558775e-07
0, 0, 91, 1.056294252066436e-07
0, 0, 92, 1.065205950112613e-07
0, 0, 93, 1.066173211938803e-07
0, 0, 94, 1.06631262042356e-07
0, 0, 95, 1.064668353478737e-07
0, 0, 96, 1.065815027345707e-07
0, 0, 97, 1.069932551445163e-07
0, 0, 98, 1.072569375537569e-07
0, 0, 99, 1.068980708396339e-07
0, 0, 100, 1.074437108172788e-07
0, 0, 101, 1.078327755976716e-07
0, 0, 102, 1.079074465337726e-07
0, 0, 103, 1.078569837886789e-07
0, 0, 104, 1.084388685512749e-07
0, 0, 105, 1.085350476159874e-07
0, 0, 106, 1.084236416204476e-07
0, 0, 107, 1.085642438169998e-07
0, 0, 108, 1.085520295873721e-07
0, 0, 109, 1.090503189971059e-07
0, 0, 110, 1.093060220114239e-07
0, 0, 111, 1.089650254471053e-07
0, 0, 112, 1.086087380031131e-07
0, 0, 113, 1.099764403988956e-07
0, 0, 114, 1.096424711022337e-07
0, 0, 115, 1.10447359702448e-07
0, 0, 116, 1.112612153519876e-07
0, 0, 117, 1.102568418787087e-07
0, 0, 118, 1.107682479073446e-07
0, 0, 119, 1.119312216246726e-07
0, 0, 120, 1.120937653809051e-07
0, 0, 121, 1.118227714869136e-07
0, 0, 122, 1.118494523666413e-07
0, 0, 123, 1.122331170222424e-07
0, 0, 124, 1.122887098858882e-07
0, 0, 125, 1.129138738065194e-07
0, 0, 126, 1.129303512925617e-07
0, 0, 127, 1.140295964319193e-07
0, 0, 128, 1.139588263754376e-07
0, 0, 129, 1.145377339639708e-07
0, 0, 130, 1.133869815816979e-07
0, 0, 131, 1.142751315796886e-07
0, 0, 132, 1.150590236420612e-07
0, 0, 133, 1.154425319782604e-07
0, 0, 134, 1.157424591724521e-07
0, 0, 135, 1.153058946101737e-07
0, 0, 136, 1.155293531951429e-07
0, 0, 137, 1.16589980336812e-07
0, 0, 138, 1.162103657748048e-07
0, 0, 139, 1.164947391885107e-07
0, 0, 140, 1.166458076795607e-07
0, 0, 141, 1.17682873224112e-07
0, 0, 142, 1.17014138822924e-07
0, 0, 143, 1.174260049197073e-07
0, 0, 144, 1.17719196168764e-07
0, 0, 145, 1.185399298719858e-07
0, 0, 146, 1.185147837645673e-07
0, 0, 147, 1.184962741263007e-07
0, 0, 148, 1.191998109106862e-07
0, 0, 149, 1.194970451479094e-07
0, 0, 150, 1.196227827904295e-07
0, 0, 151, 1.200277495172486e-07
0, 0, 152, 1.201524213456651e-07
0, 0, 153, 1.206306592393958e-07
0, 0, 154, 1.204551978162272e-07
0, 0, 155, 1.21250081974722e-07
0, 0, 156, 1.215912988072887e-07
0, 0, 157, 1.222141179368919e-07
0, 0, 158, 1.223621950430243e-07
0, 0, 159, 1.224370294039545e-07
0, 0, 160, 1.223644687797787e-07
0, 0, 161, 1.235137574440159e-07
0, 0, 162, 1.247037175744481e-07
0, 0, 163, 1.241703984078413e-07
0, 0, 164, 1.249744627784821e-07
0, 0, 165, 1.258096773426587e-07
0, 0, 166, 1.252165873211197e-07
0, 0, 167, 1.264444335902226e-07
0, 0, 168, 1.258434565443167e-07
0, 0, 169, 1.264314732907224e-07
0, 0, 170, 1.270408631626196e-07
0, 0, 171, 1.277730916626751e-07
0, 0, 172, 1.287702673380409e-07
0, 0, 173, 1.289616307076358e-07
0, 0, 174, 1.292069100600202e-07
0, 0, 175, 1.292434603783477e-07
0, 0, 176, 1.304515393485417e-07
0, 0, 177, 1.313748754228072e-07
0, 0, 178, 1.311674679982389e-07
0, 0, 179, 1.322306104611926e-07
0, 0, 180, 1.323785454587778e-07
0, 0, 181, 1.335355079845613e-07
0, 0, 182, 1.335252477474569e-07
0, 0, 183, 1.339777497832983e-07
0, 0, 184, 1.346753606412676e-07
0, 0, 185, 1.354465837266616e-07
0, 0, 186, 1.363655997010937e-07
0, 0, 187, 1.372126519072481e-07
0, 0, 188, 1.381786347565139e-07
0, 0, 189, 1.387039247902067e-07
0, 0, 190, 1.397368265543264e-07
0, 0, 191, 1.409127037277358e-07
0, 0, 192, 1.416673143239677e-07
0, 0, 193, 1.419601858287933e-07
0, 0, 194, 1.43174020195147e-07
0, 0, 195, 1.437566936601797e-07
0, 0, 196, 1.447503166218667e-07
0, 0, 197, 1.450637512334652e-07
0, 0, 198, 1.46699065339817e-07
0, 0, 199, 1.470186674623619e-07
0, 0, 200, 1.481392928326386e-07
0, 0, 201, 1.494224903808572e-07
0, 0, 202, 1.501963566852282e-07
0, 0, 203, 1.521993056030624e-07
0, 0, 204, 1.533510669560201e-07
0, 0, 205, 1.542448728741874e-07
0, 0, 206, 1.561045195330735e-07
0, 0, 207, 1.572748828948534e-07
0, 0, 208, 1.589406650737146e-07
0, 0, 209, 1.601494119540803e-07
0, 0, 210, 1.627900871881138e-07
0, 0, 211, 1.64407424563251e-07
0, 0, 212, 1.659866057934778e-07
0, 0, 213, 1.675949619084349e-07
0, 0, 214, 1.698634690683321e-07
0, 0, 215, 1.719134559152735e-07
0, 0, 216, 1.742790374237302e-07
0, 0, 217, 1.76261195861116e-07
0, 0, 218, 1.784775491842083e-07
0, 0, 219, 1.816335100102151e-07
0, 0, 220, 1.843133219381343e-07
0, 0, 221, 1.871367629746601e-07
0, 0, 222, 1.91218973100149e-07
0, 0, 223, 1.950074164369653e-07
0, 0, 224, 1.988725273349701e-07
0, 0, 225, 2.026302041713279e-07
0, 0, 226, 2.070217277605479e-07
0, 0, 227, 2.125281497455944e-07
0, 0, 228, 2.178635867267076e-07
0, 0, 229, 2.239784606672401e-07
0, 0, 230, 2.304898885086004e-07
0, 0, 231, 2.382143406975956e-07
0, 0, 232, 2.46998069997062e-07
0, 0, 233, 2.576271356247162e-07
0, 0, 234, 2.694698935101769e-07
0, 0, 235, 2.839887258687668e-07
0, 0, 236, 3.008057376518991e-07
0, 0, 237, 3.213487786979385e-07
0, 0, 238, 3.455708679211966e-07
0, 0, 239, 3.711044200827018e-07
0, 0, 240, 3.920579274563352e-07
0, 0, 241, 4.000027900019631e-07
0, 0, 242, 3.871324452120462e-07
0, 0, 243, 3.435842756971397e-07
0, 0, 244, 2.798037428419775e-07
0, 0, 245, 2.046421911927609e-07
0, 0, 246, 1.332438017698223e-07
0, 0, 247, 7.542231372781316e-08
0, 0, 248, 3.528522540818813e-08
0, 0, 249, 1.570007590601108e-08
0, 0, 250, 6.360012516637426e-09
0, 0, 251, 2.428106160579091e-09
0, 0, 252, 1.269820582017189e-09
0, 0, 253, 9.959003621773377e-10
0, 0, 254, 8.502248349806507e-10
0, 0, 255, 8.808052065489846e-10
0, 0, 256, 8.360299119658521e-10
0, 0, 257, 7.601196339024341e-10
0, 0, 258, 8.845779109201146e-10
0, 0, 259, 9.468821282609952e-10
0, 0, 260, 8.755922098480085e-10
0, 0, 261, 9.211998386327025e-10
0, 0, 262, 8.378296945110719e-10
0, 0, 263, 8.219169234102708e-10
0, 0, 264, 7.691439707357972e-10
0, 0, 265, 9.489080632363311e-10
0, 0, 266, 8.432447518025299e-10
0, 0, 267, 8.449987376479839e-10
0, 0, 268, 8.013224528369278e-10
0, 0, 269, 7.868923290743624e-10
0, 0, 270, 6.606339919557058e-10
0, 0, 271, 6.704297117465785e-10
0, 0, 272, 6.767649218808458e-10
0, 0, 273, 6.815056297071465e-10
0, 0, 274, 8.435677711915446e-10
0, 0, 275, 5.951421022665215e-10
0, 0, 276, 6.861974877203636e-10
0, 0, 277, 6.308858990777821e-10
0, 0, 278, 7.282545677611552e-10
0, 0, 279, 7.952579705872154e-10
0, 0, 280, 6.676102448643917e-10
0, 0, 281, 6.965663046365478e-10
0, 0, 282, 6.63828492175611e-10
0, 0, 283, 7.45120465328597e-10
0, 0, 284, 4.523860730465401e-10
0, 0, 285, 5.297690619521234e-10
0, 0, 286, 5.395260349594366e-10
0, 0, 287, 5.664491653512016e-10
0, 0, 288, 4.898486616333741e-10
0, 0, 289, 4.754232008075121e-10
0, 0, 290, 6.327721124854691e-10
0, 0, 291, 5.295440197450318e-10
0, 0, 292, 5.174825568055041e-10
0, 0, 293, 5.552464599212215e-10
0, 0, 294, 5.339899078471433e-10
0, 0, 295, 3.973526230272029e-10
0, 0, 296, 5.6331073139404e-10
0, 0, 297, 5.795874891134645e-10
0, 0, 298, 5.676952796740409e-10
0, 0, 299, 5.16096054781201e-10
0, 0, 300, 5.53223522548052e-10
