# TOPAS Version: 3.9
# Parameter File: pristine_temp.txt
# Results for scorer: DosePhantom
# Scored in component: Phantom
# X in 1 bin  of 30 cm
# Y in 1 bin  of 30 cm
# Z in 301 bins of 0.0996678 cm
# DoseToMedium ( Gy ) : Sum   
0, 0, 0, 8.264513695621645e-08
0, 0, 1, 8.455575084553857e-08
0, 0, 2, 8.482734870085551e-08
0, 0, 3, 8.548016694476246e-08
0, 0, 4, 8.558169639627522e-08
0, 0, 5, 8.648453331261408e-08
0, 0, 6, 8.656570571474731e-08
0, 0, 7, 8.713184485031888e-08
0, 0, 8, 8.715083765764575e-08
0, 0, 9, 8.745727342329701e-08
0, 0, 10, 8.792061123585881e-08
0, 0, 11, 8.904156345579395e-08
0, 0, 12, 8.849697508139798e-08
0, 0, 13, 8.926212302640124e-08
0, 0, 14, 8.939528584051004e-08
0, 0, 15, 8.954912544822946e-08
0, 0, 16, 8.942065932160403e-08
0, 0, 17, 8.988667588027965e-08
0, 0, 18, 9.028817515854826e-08
0, 0, 19, 9.048929427990515e-08
0, 0, 20, 9.066919659517225e-08
0, 0, 21, 9.045088233960996e-08
0, 0, 22, 9.156813973731914e-08
0, 0, 23, 9.183722937677885e-08
0, 0, 24, 9.275404266873011e-08
0, 0, 25, 9.277033541366109e-08
0, 0, 26, 9.309452764227899e-08
0, 0, 27, 9.294917191482455e-08
0, 0, 28, 9.288206115343201e-08
0, 0, 29, 9.357447083857551e-08
0, 0, 30, 9.347954943450532e-08
0, 0, 31, 9.395001399070679e-08
0, 0, 32, 9.442376835977484e-08
0, 0, 33, 9.388713095859202e-08
0, 0, 34, 9.375156651003635e-08
0, 0, 35, 9.420418223271554e-08
0, 0, 36, 9.430326031178993e-08
0, 0, 37, 9.474513973373178e-08
0, 0, 38, 9.461079031325426e-08
0, 0, 39, 9.51332950194228e-08
0, 0, 40, 9.539852641182733e-08
0, 0, 41, 9.545722434722848e-08
0, 0, 42, 9.560561409216461e-08
0, 0, 43, 9.657960475806249e-08
0, 0, 44, 9.727185812380412e-08
0, 0, 45, 9.668126210726768e-08
0, 0, 46, 9.617680518658744e-08
0, 0, 47, 9.693764013718464e-08
0, 0, 48, 9.676811174585964e-08
0, 0, 49, 9.62272892479632e-08
0, 0, 50, 9.682168666813595e-08
0, 0, 51, 9.808738354877278e-08
0, 0, 52, 9.767237685309738e-08
0, 0, 53, 9.683974155905162e-08
0, 0, 54, 9.748501383910479e-08
0, 0, 55, 9.765444275444679e-08
0, 0, 56, 9.746487705797335e-08
0, 0, 57, 9.853304305806887e-08
0, 0, 58, 9.792113786488699e-08
0, 0, 59, 9.891270735806756e-08
0, 0, 60, 9.937433986806354e-08
0, 0, 61, 9.892554686530275e-08
0, 0, 62, 9.918450416535052e-08
0, 0, 63, 9.940347922565707e-08
0, 0, 64, 9.917752663568535e-08
0, 0, 65, 9.947398638132654e-08
0, 0, 66, 9.92589477277761e-08
0, 0, 67, 9.915773091506708e-08
0, 0, 68, 9.948607271326182e-08
0, 0, 69, 1.006184149332512e-07
0, 0, 70, 9.972180237127759e-08
0, 0, 71, 1.005150025434887e-07
0, 0, 72, 1.001542315748338e-07
0, 0, 73, 1.006809782211349e-07
0, 0, 74, 1.015497730350035e-07
0, 0, 75, 1.006787400115172e-07
0, 0, 76, 1.019054280959608e-07
0, 0, 77, 1.018804880459356e-07
0, 0, 78, 1.022406479478377e-07
0, 0, 79, 1.020025379716571e-07
0, 0, 80, 1.024981202135677e-07
0, 0, 81, 1.027373741635529e-07
0, 0, 82, 1.023110414166695e-07
0, 0, 83, 1.018206390313026e-07
0, 0, 84, 1.028482117249041e-07
0, 0, 85, 1.02256251466315e-07
0, 0, 86, 1.024793405690616e-07
0, 0, 87, 1.034390777476801e-07
0, 0, 88, 1.037975749795805e-07
0, 0, 89, 1.03751247593209e-07
0, 0, 90, 1.039677570702224e-07
0, 0, 91, 1.038624262150734e-07
0, 0, 92, 1.040320967149455e-07
0, 0, 93, 1.045688406975387e-07
0, 0, 94, 1.041529245071615e-07
0, 0, 95, 1.038387011931263e-07
0, 0, 96, 1.050689419912487e-07
0, 0, 97, 1.051641049798491e-07
0, 0, 98, 1.056559852941064e-07
0, 0, 99, 1.057634051448986e-07
0, 0, 100, 1.056581453440231e-07
0, 0, 101, 1.056194989246251e-07
0, 0, 102, 1.060012309039848e-07
0, 0, 103, 1.065780352860202e-07
0, 0, 104, 1.063003907120219e-07
0, 0, 105, 1.064747792156595e-07
0, 0, 106, 1.060467695879197e-07
0, 0, 107, 1.06957841694566e-07
0, 0, 108, 1.069858441837823e-07
0, 0, 109, 1.07352533973426e-07
0, 0, 110, 1.074877431506138e-07
0, 0, 111, 1.068921307023629e-07
0, 0, 112, 1.077351114986413e-07
0, 0, 113, 1.074853912541585e-07
0, 0, 114, 1.076528164389856e-07
0, 0, 115, 1.074405844292414e-07
0, 0, 116, 1.081522071899599e-07
0, 0, 117, 1.084542233797947e-07
0, 0, 118, 1.07628920886782e-07
0, 0, 119, 1.086781580283969e-07
0, 0, 120, 1.089845440560566e-07
0, 0, 121, 1.08732841397341e-07
0, 0, 122, 1.087642331754068e-07
0, 0, 123, 1.089318146796359e-07
0, 0, 124, 1.095586981136876e-07
0, 0, 125, 1.099791546721463e-07
0, 0, 126, 1.09452543028965e-07
0, 0, 127, 1.100693225453142e-07
0, 0, 128, 1.103794033951999e-07
0, 0, 129, 1.110466598674975e-07
0, 0, 130, 1.108907099478529e-07
0, 0, 131, 1.120875126048304e-07
0, 0, 132, 1.114350069997272e-07
0, 0, 133, 1.123171955441649e-07
0, 0, 134, 1.127882853779738e-07
0, 0, 135, 1.122852637536198e-07
0, 0, 136, 1.126171795817754e-07
0, 0, 137, 1.123909427747094e-07
0, 0, 138, 1.133562008703848e-07
0, 0, 139, 1.125480579844407e-07
0, 0, 140, 1.128998050603514e-07
0, 0, 141, 1.126307935805926e-07
0, 0, 142, 1.136819562930214e-07
0, 0, 143, 1.135547975650297e-07
0, 0, 144, 1.13903993792519e-07
0, 0, 145, 1.137254628247319e-07
0, 0, 146, 1.14168479115051e-07
0, 0, 147, 1.139612564315939e-07
0, 0, 148, 1.151787003550453e-07
0, 0, 149, 1.153177109358694e-07
0, 0, 150, 1.152438500184871e-07
0, 0, 151, 1.152065891574239e-07
0, 0, 152, 1.151216650896458e-07
0, 0, 153, 1.154592226271234e-07
0, 0, 154, 1.169444843185374e-07
0, 0, 155, 1.166605869684645e-07
0, 0, 156, 1.176257313773021e-07
0, 0, 157, 1.180318491833532e-07
0, 0, 158, 1.175582724499691e-07
0, 0, 159, 1.173669801346477e-07
0, 0, 160, 1.173697299350351e-07
0, 0, 161, 1.17478016647965e-07
0, 0, 162, 1.189852270044867e-07
0, 0, 163, 1.187791269785521e-07
0, 0, 164, 1.195222409933194e-07
0, 0, 165, 1.198681189862327e-07
0, 0, 166, 1.199586989741874e-07
0, 0, 167, 1.205333290954513e-07
0, 0, 168, 1.200682362423322e-07
0, 0, 169, 1.207732935881722e-07
0, 0, 170, 1.210312916555267e-07
0, 0, 171, 1.211940769962894e-07
0, 0, 172, 1.228215893434026e-07
0, 0, 173, 1.234213300449483e-07
0, 0, 174, 1.236851261410266e-07
0, 0, 175, 1.239378235595723e-07
0, 0, 176, 1.2401952176333e-07
0, 0, 177, 1.24653126931662e-07
0, 0, 178, 1.249110113121787e-07
0, 0, 179, 1.250963350685197e-07
0, 0, 180, 1.256597101928492e-07
0, 0, 181, 1.258566726392019e-07
0, 0, 182, 1.263533420114982e-07
0, 0, 183, 1.269763458822126e-07
0, 0, 184, 1.281396464491991e-07
0, 0, 185, 1.286733350980285e-07
0, 0, 186, 1.287856861154069e-07
0, 0, 187, 1.295893241604062e-07
0, 0, 188, 1.297223377605405e-07
0, 0, 189, 1.303110792605366e-07
0, 0, 190, 1.314085551484823e-07
0, 0, 191, 1.314440538635608e-07
0, 0, 192, 1.318796023497271e-07
0, 0, 193, 1.325408618413348e-07
0, 0, 194, 1.327984477939026e-07
0, 0, 195, 1.336932200501906e-07
0, 0, 196, 1.344311471029869e-07
0, 0, 197, 1.351391887283171e-07
0, 0, 198, 1.364570323403314e-07
0, 0, 199, 1.371373627989669e-07
0, 0, 200, 1.378212886038455e-07
0, 0, 201, 1.389047241673325e-07
0, 0, 202, 1.388605284091682e-07
0, 0, 203, 1.399271383206724e-07
0, 0, 204, 1.415824044670444e-07
0, 0, 205, 1.419477086983534e-07
0, 0, 206, 1.425540148147775e-07
0, 0, 207, 1.435413850003897e-07
0, 0, 208, 1.442461154965713e-07
0, 0, 209, 1.448984789931274e-07
0, 0, 210, 1.465983956450145e-07
0, 0, 211, 1.475445117193885e-07
0, 0, 212, 1.482170830513496e-07
0, 0, 213, 1.494584722649961e-07
0, 0, 214, 1.504674997931943e-07
0, 0, 215, 1.519082815093498e-07
0, 0, 216, 1.534994993335204e-07
0, 0, 217, 1.547759893583134e-07
0, 0, 218, 1.561400324590068e-07
0, 0, 219, 1.576806027969724e-07
0, 0, 220, 1.583894970735855e-07
0, 0, 221, 1.605183967967605e-07
0, 0, 222, 1.629718155982118e-07
0, 0, 223, 1.643319222921491e-07
0, 0, 224, 1.669069433773984e-07
0, 0, 225, 1.683445560729524e-07
0, 0, 226, 1.70795516396538e-07
0, 0, 227, 1.731762040435569e-07
0, 0, 228, 1.760170107445447e-07
0, 0, 229, 1.776226952188154e-07
0, 0, 230, 1.799799207446995e-07
0, 0, 231, 1.83079109206119e-07
0, 0, 232, 1.862225786908311e-07
0, 0, 233, 1.895545409524857e-07
0, 0, 234, 1.938501128506687e-07
0, 0, 235, 1.97642393118258e-07
0, 0, 236, 2.016942346472206e-07
0, 0, 237, 2.071347608989527e-07
0, 0, 238, 2.11670723615498e-07
0, 0, 239, 2.171681643403645e-07
0, 0, 240, 2.233010150121117e-07
0, 0, 241, 2.300066341831553e-07
0, 0, 242, 2.378578614070648e-07
0, 0, 243, 2.470501954121573e-07
0, 0, 244, 2.586182858976827e-07
0, 0, 245, 2.708877389068221e-07
0, 0, 246, 2.860769541257469e-07
0, 0, 247, 3.044696370579913e-07
0, 0, 248, 3.253274769576819e-07
0, 0, 249, 3.475500136573828e-07
0, 0, 250, 3.693706105423189e-07
0, 0, 251, 3.838662223643041e-07
0, 0, 252, 3.860656363485759e-07
0, 0, 253, 3.660276206574054e-07
0, 0, 254, 3.212333581359417e-07
0, 0, 255, 2.553291267304303e-07
0, 0, 256, 1.849866322345406e-07
0, 0, 257, 1.196729471075741e-07
0, 0, 258, 6.818632414251624e-08
0, 0, 259, 3.43217685383479e-08
0, 0, 260, 1.559273066220612e-08
0, 0, 261, 5.639706923687982e-09
0, 0, 262, 2.310179603171036e-09
0, 0, 263, 1.032424146174549e-09
0, 0, 264, 7.619903596989275e-10
0, 0, 265, 7.74030173289475e-10
0, 0, 266, 6.120474682624888e-10
0, 0, 267, 8.008990137753358e-10
0, 0, 268, 7.698306991876791e-10
0, 0, 269, 7.563937809429433e-10
0, 0, 270, 6.771985749942644e-10
0, 0, 271, 6.448591105545631e-10
0, 0, 272, 7.629675780052025e-10
0, 0, 273, 7.305460125728303e-10
0, 0, 274, 7.562296344687525e-10
0, 0, 275, 7.214108754816095e-10
0, 0, 276, 8.903729420417505e-10
0, 0, 277, 7.514330269131619e-10
0, 0, 278, 7.226534926019212e-10
0, 0, 279, 7.473411334224522e-10
0, 0, 280, 6.801326168925925e-10
0, 0, 281, 7.391743883644608e-10
0, 0, 282, 7.852622996296077e-10
0, 0, 283, 7.83361264744542e-10
0, 0, 284, 7.76010034009289e-10
0, 0, 285, 7.002871615924278e-10
0, 0, 286, 7.2913619586501e-10
0, 0, 287, 8.833076492464897e-10
0, 0, 288, 7.382724986904066e-10
0, 0, 289, 6.993673418165258e-10
0, 0, 290, 6.921301309859018e-10
0, 0, 291, 7.490445486091346e-10
0, 0, 292, 5.72437541812576e-10
0, 0, 293, 6.026366072831024e-10
0, 0, 294, 6.452330336692569e-10
0, 0, 295, 7.499926790721645e-10
0, 0, 296, 7.183916794772927e-10
0, 0, 297, 5.695128257876547e-10
0, 0, 298, 5.844981720848352e-10
0, 0, 299, 6.623525061755231e-10
0, 0, 300, 7.228544429693784e-10
