# TOPAS Version: 3.9
# Parameter File: pristine_temp.txt
# Results for scorer: DosePhantom
# Scored in component: Phantom
# X in 1 bin  of 30 cm
# Y in 1 bin  of 30 cm
# Z in 301 bins of 0.0996678 cm
# DoseToMedium ( Gy ) : Sum   
0, 0, 0, 8.230350090343563e-08
0, 0, 1, 8.439415921657201e-08
0, 0, 2, 8.468202850053785e-08
0, 0, 3, 8.529486450470358e-08
0, 0, 4, 8.56821671391117e-08
0, 0, 5, 8.646556892699664e-08
0, 0, 6, 8.661829298262091e-08
0, 0, 7, 8.704897425104718e-08
0, 0, 8, 8.748690305537821e-08
0, 0, 9, 8.783662508449197e-08
0, 0, 10, 8.85224267221929e-08
0, 0, 11, 8.849651322861973e-08
0, 0, 12, 8.852121879954211e-08
0, 0, 13, 8.891740321814723e-08
0, 0, 14, 8.94313743060593e-08
0, 0, 15, 8.962962994019108e-08
0, 0, 16, 8.888132185802533e-08
0, 0, 17, 8.885784552603582e-08
0, 0, 18, 8.971975518079489e-08
0, 0, 19, 9.0085976012233e-08
0, 0, 20, 9.097849584804862e-08
0, 0, 21, 9.143762014218737e-08
0, 0, 22, 9.119992228079354e-08
0, 0, 23, 9.159966651850482e-08
0, 0, 24, 9.158494407301987e-08
0, 0, 25, 9.157903235745835e-08
0, 0, 26, 9.210062756892512e-08
0, 0, 27, 9.218480556683062e-08
0, 0, 28, 9.268117651117791e-08
0, 0, 29, 9.27266938788307e-08
0, 0, 30, 9.289338720464002e-08
0, 0, 31, 9.363880337787123e-08
0, 0, 32, 9.381964360954953e-08
0, 0, 33, 9.374974752063281e-08
0, 0, 34, 9.437878389917387e-08
0, 0, 35, 9.492591601656386e-08
0, 0, 36, 9.501917475063237e-08
0, 0, 37, 9.510230114528895e-08
0, 0, 38, 9.562407399243966e-08
0, 0, 39, 9.526237221280098e-08
0, 0, 40, 9.546954515826656e-08
0, 0, 41, 9.59375014986108e-08
0, 0, 42, 9.597528105587116e-08
0, 0, 43, 9.490575791915035e-08
0, 0, 44, 9.624380226114226e-08
0, 0, 45, 9.580632820416213e-08
0, 0, 46, 9.5996021798328e-08
0, 0, 47, 9.637976461362996e-08
0, 0, 48, 9.684577406687822e-08
0, 0, 49, 9.651714094616182e-08
0, 0, 50, 9.74248663965227e-08
0, 0, 51, 9.70370592767722e-08
0, 0, 52, 9.718933569047294e-08
0, 0, 53, 9.713296122981774e-08
0, 0, 54, 9.669012257518261e-08
0, 0, 55, 9.696800162828367e-08
0, 0, 56, 9.772080034053943e-08
0, 0, 57, 9.7590188374852e-08
0, 0, 58, 9.793938460234131e-08
0, 0, 59, 9.844679738080231e-08
0, 0, 60, 9.981628323885161e-08
0, 0, 61, 9.845883397474609e-08
0, 0, 62, 9.948561796591093e-08
0, 0, 63, 9.935511258163388e-08
0, 0, 64, 9.981577875350922e-08
0, 0, 65, 9.976204751183104e-08
0, 0, 66, 9.964272607021485e-08
0, 0, 67, 9.986685256535566e-08
0, 0, 68, 1.000751552737711e-07
0, 0, 69, 9.952541546454086e-08
0, 0, 70, 1.003890659490025e-07
0, 0, 71, 1.012955266332938e-07
0, 0, 72, 1.012361323660116e-07
0, 0, 73, 1.004477070409848e-07
0, 0, 74, 1.010696593084504e-07
0, 0, 75, 1.010224295328044e-07
0, 0, 76, 1.01217800363429e-07
0, 0, 77, 1.011329189282151e-07
0, 0, 78, 1.016280393173474e-07
0, 0, 79, 1.023426392521287e-07
0, 0, 80, 1.020427617959285e-07
0, 0, 81, 1.020471174228987e-07
0, 0, 82, 1.023416373868713e-07
0, 0, 83, 1.022142299689222e-07
0, 0, 84, 1.029521428108637e-07
0, 0, 85, 1.038553349985705e-07
0, 0, 86, 1.031135283824369e-07
0, 0, 87, 1.030069540775003e-07
0, 0, 88, 1.033794418958678e-07
0, 0, 89, 1.040751982372967e-07
0, 0, 90, 1.037723009744695e-07
0, 0, 91, 1.044980351139202e-07
0, 0, 92, 1.041357649000929e-07
0, 0, 93, 1.043329049821295e-07
0, 0, 94, 1.046965465434369e-07
0, 0, 95, 1.051394420414908e-07
0, 0, 96, 1.051556068887294e-07
0, 0, 97, 1.056896863360635e-07
0, 0, 98, 1.057731751075153e-07
0, 0, 99, 1.057849061680827e-07
0, 0, 100, 1.057499332546286e-07
0, 0, 101, 1.055801632787734e-07
0, 0, 102, 1.058288674471441e-07
0, 0, 103, 1.063181187532791e-07
0, 0, 104, 1.067816057798154e-07
0, 0, 105, 1.07904632784539e-07
0, 0, 106, 1.070413233605905e-07
0, 0, 107, 1.077248441561096e-07
0, 0, 108, 1.078636486795403e-07
0, 0, 109, 1.081054108453827e-07
0, 0, 110, 1.088922800818182e-07
0, 0, 111, 1.080532143760138e-07
0, 0, 112, 1.086348504486523e-07
0, 0, 113, 1.08661886599748e-07
0, 0, 114, 1.095108501658615e-07
0, 0, 115, 1.095505552939358e-07
0, 0, 116, 1.096348114515422e-07
0, 0, 117, 1.100830360201144e-07
0, 0, 118, 1.096535982014757e-07
0, 0, 119, 1.110472283016861e-07
0, 0, 120, 1.105312819049686e-07
0, 0, 121, 1.112174956574563e-07
0, 0, 122, 1.116800518730088e-07
0, 0, 123, 1.115439118848371e-07
0, 0, 124, 1.115105163762564e-07
0, 0, 125, 1.110857681396737e-07
0, 0, 126, 1.125275019830951e-07
0, 0, 127, 1.127083635310555e-07
0, 0, 128, 1.132653650870452e-07
0, 0, 129, 1.125455852957202e-07
0, 0, 130, 1.136250986633058e-07
0, 0, 131, 1.137852478905188e-07
0, 0, 132, 1.147816703905846e-07
0, 0, 133, 1.144939290043112e-07
0, 0, 134, 1.145091133025744e-07
0, 0, 135, 1.155823099452391e-07
0, 0, 136, 1.149752719697972e-07
0, 0, 137, 1.150601605104384e-07
0, 0, 138, 1.15654394505782e-07
0, 0, 139, 1.159226457048135e-07
0, 0, 140, 1.165544176728872e-07
0, 0, 141, 1.175115755813749e-07
0, 0, 142, 1.172026102835844e-07
0, 0, 143, 1.176331778651729e-07
0, 0, 144, 1.180719948479236e-07
0, 0, 145, 1.18593384001997e-07
0, 0, 146, 1.185222728850022e-07
0, 0, 147, 1.186104867656468e-07
0, 0, 148, 1.192311316344785e-07
0, 0, 149, 1.197591643631313e-07
0, 0, 150, 1.209040476624068e-07
0, 0, 151, 1.21283065368516e-07
0, 0, 152, 1.211784734778121e-07
0, 0, 153, 1.220805074808595e-07
0, 0, 154, 1.224217101025715e-07
0, 0, 155, 1.234503628211314e-07
0, 0, 156, 1.240968714455448e-07
0, 0, 157, 1.246068848104187e-07
0, 0, 158, 1.253766015452129e-07
0, 0, 159, 1.252736154810918e-07
0, 0, 160, 1.262292812498345e-07
0, 0, 161, 1.263866238332412e-07
0, 0, 162, 1.270869063318969e-07
0, 0, 163, 1.278005044014208e-07
0, 0, 164, 1.286145447920717e-07
0, 0, 165, 1.289026272388583e-07
0, 0, 166, 1.304804442270324e-07
0, 0, 167, 1.31138918391116e-07
0, 0, 168, 1.314319320044888e-07
0, 0, 169, 1.327603484924111e-07
0, 0, 170, 1.333599897179738e-07
0, 0, 171, 1.341957158729201e-07
0, 0, 172, 1.352527476683463e-07
0, 0, 173, 1.358177996735321e-07
0, 0, 174, 1.363235924145556e-07
0, 0, 175, 1.374257294628478e-07
0, 0, 176, 1.394239035334977e-07
0, 0, 177, 1.401241291887345e-07
0, 0, 178, 1.415041737118372e-07
0, 0, 179, 1.419564767957127e-07
0, 0, 180, 1.429310998446454e-07
0, 0, 181, 1.446455826226156e-07
0, 0, 182, 1.451679736419464e-07
0, 0, 183, 1.462882153191458e-07
0, 0, 184, 1.478972819768387e-07
0, 0, 185, 1.495492369940621e-07
0, 0, 186, 1.513560903276812e-07
0, 0, 187, 1.529585631487862e-07
0, 0, 188, 1.545629118027136e-07
0, 0, 189, 1.570748935364463e-07
0, 0, 190, 1.583517814651714e-07
0, 0, 191, 1.611676339052792e-07
0, 0, 192, 1.632235182569275e-07
0, 0, 193, 1.654289718544533e-07
0, 0, 194, 1.682311960848892e-07
0, 0, 195, 1.707860093347335e-07
0, 0, 196, 1.732891092842692e-07
0, 0, 197, 1.76315083422196e-07
0, 0, 198, 1.805989882086578e-07
0, 0, 199, 1.838357377437205e-07
0, 0, 200, 1.885264708789691e-07
0, 0, 201, 1.927735269191544e-07
0, 0, 202, 1.983081432399558e-07
0, 0, 203, 2.030996313351352e-07
0, 0, 204, 2.101039626722923e-07
0, 0, 205, 2.166815846749159e-07
0, 0, 206, 2.248415000849491e-07
0, 0, 207, 2.340747755624761e-07
0, 0, 208, 2.44625567802359e-07
0, 0, 209, 2.578009059561737e-07
0, 0, 210, 2.733582391556411e-07
0, 0, 211, 2.920815518336894e-07
0, 0, 212, 3.152373153625376e-07
0, 0, 213, 3.406426287710929e-07
0, 0, 214, 3.634674783370428e-07
0, 0, 215, 3.749657651042071e-07
0, 0, 216, 3.639056842530408e-07
0, 0, 217, 3.208132284271414e-07
0, 0, 218, 2.508948568902269e-07
0, 0, 219, 1.709775574454397e-07
0, 0, 220, 9.899133601720678e-08
0, 0, 221, 4.823426991151791e-08
0, 0, 222, 2.066819426715938e-08
0, 0, 223, 6.95677826456631e-09
0, 0, 224, 2.353787165176868e-09
0, 0, 225, 1.073300115450593e-09
0, 0, 226, 8.77178274460988e-10
0, 0, 227, 8.8578372414716e-10
0, 0, 228, 9.348706253575756e-10
0, 0, 229, 1.076294497970309e-09
0, 0, 230, 1.090627144151313e-09
0, 0, 231, 9.794487443315347e-10
0, 0, 232, 1.009926808848149e-09
0, 0, 233, 1.017420370175159e-09
0, 0, 234, 8.086350478109239e-10
0, 0, 235, 7.676187463445672e-10
0, 0, 236, 7.937564494575611e-10
0, 0, 237, 7.625470255234745e-10
0, 0, 238, 9.274324086483432e-10
0, 0, 239, 7.624894049484965e-10
0, 0, 240, 7.932665635479452e-10
0, 0, 241, 7.306796834249951e-10
0, 0, 242, 7.066689455825781e-10
0, 0, 243, 7.635646559478459e-10
0, 0, 244, 7.439107108098142e-10
0, 0, 245, 7.757850473133487e-10
0, 0, 246, 6.518897088803044e-10
0, 0, 247, 6.538065089323197e-10
0, 0, 248, 8.513929561360101e-10
0, 0, 249, 8.930754469282931e-10
0, 0, 250, 6.071064206913945e-10
0, 0, 251, 7.575735594400612e-10
0, 0, 252, 7.011958791380835e-10
0, 0, 253, 7.229931653363053e-10
0, 0, 254, 7.433341719931263e-10
0, 0, 255, 6.324170076510427e-10
0, 0, 256, 7.017523229180256e-10
0, 0, 257, 7.828777626173178e-10
0, 0, 258, 6.998194246321532e-10
0, 0, 259, 6.31057983646599e-10
0, 0, 260, 6.905537808243878e-10
0, 0, 261, 6.482703818200264e-10
0, 0, 262, 6.727768897540898e-10
0, 0, 263, 6.772031824198166e-10
0, 0, 264, 5.937573210879066e-10
0, 0, 265, 6.27657315011021e-10
0, 0, 266, 6.191026580282255e-10
0, 0, 267, 5.141393977226016e-10
0, 0, 268, 6.825332521387395e-10
0, 0, 269, 6.836198829240914e-10
0, 0, 270, 6.540096797458261e-10
0, 0, 271, 7.73022978961535e-10
0, 0, 272, 6.739704905278643e-10
0, 0, 273, 6.631715732119403e-10
0, 0, 274, 6.691328047203626e-10
0, 0, 275, 6.615480940830309e-10
0, 0, 276, 5.699054561603134e-10
0, 0, 277, 5.201885588945743e-10
0, 0, 278, 6.406586372520451e-10
0, 0, 279, 6.77786105018896e-10
0, 0, 280, 5.675348524469825e-10
0, 0, 281, 5.533042357619422e-10
0, 0, 282, 7.334576834772122e-10
0, 0, 283, 6.015096754019567e-10
0, 0, 284, 5.727815444167561e-10
0, 0, 285, 4.892916627419197e-10
0, 0, 286, 5.705771966013629e-10
0, 0, 287, 3.98534261147887e-10
0, 0, 288, 4.399620112671698e-10
0, 0, 289, 5.063430230656252e-10
0, 0, 290, 4.70242622618855e-10
0, 0, 291, 4.326273228549837e-10
0, 0, 292, 4.099806050206212e-10
0, 0, 293, 3.736576326129892e-10
0, 0, 294, 4.047621127156731e-10
0, 0, 295, 5.578351114365887e-10
0, 0, 296, 4.649819140833955e-10
0, 0, 297, 4.372150974596423e-10
0, 0, 298, 4.066100234290104e-10
0, 0, 299, 4.337306902524318e-10
0, 0, 300, 4.982203538617114e-10
