# TOPAS Version: 3.9
# Parameter File: pristine_temp.txt
# Results for scorer: DosePhantom
# Scored in component: Phantom
# X in 1 bin  of 30 cm
# Y in 1 bin  of 30 cm
# Z in 301 bins of 0.0996678 cm
# DoseToMedium ( Gy ) : Sum   
0, 0, 0, 8.735596424003234e-08
0, 0, 1, 8.981987065226349e-08
0, 0, 2, 9.002890521969675e-08
0, 0, 3, 9.065537653896172e-08
0, 0, 4, 9.09437432028426e-08
0, 0, 5, 9.169703218958603e-08
0, 0, 6, 9.238826947921552e-08
0, 0, 7, 9.240376641628245e-08
0, 0, 8, 9.302822689960522e-08
0, 0, 9, 9.439559534030195e-08
0, 0, 10, 9.370005926712111e-08
0, 0, 11, 9.437971471015771e-08
0, 0, 12, 9.435355963205438e-08
0, 0, 13, 9.460919869752615e-08
0, 0, 14, 9.495849440099846e-08
0, 0, 15, 9.535597200738266e-08
0, 0, 16, 9.523856192572566e-08
0, 0, 17, 9.529567535082606e-08
0, 0, 18, 9.566006298200591e-08
0, 0, 19, 9.617562568564608e-08
0, 0, 20, 9.719217786141598e-08
0, 0, 21, 9.743777695803146e-08
0, 0, 22, 9.679310863930368e-08
0, 0, 23, 9.766451114501251e-08
0, 0, 24, 9.776646692216673e-08
0, 0, 25, 9.854670679487754e-08
0, 0, 26, 9.860828242835851e-08
0, 0, 27, 9.869803108131237e-08
0, 0, 28, 9.968462677534262e-08
0, 0, 29, 9.978892734352485e-08
0, 0, 30, 9.963977021243409e-08
0, 0, 31, 1.004917393743199e-07
0, 0, 32, 1.005013956500989e-07
0, 0, 33, 1.010702632697758e-07
0, 0, 34, 1.011228789593588e-07
0, 0, 35, 1.013473891475769e-07
0, 0, 36, 1.014011203892551e-07
0, 0, 37, 1.011613761647823e-07
0, 0, 38, 1.009532937246149e-07
0, 0, 39, 1.014352264405716e-07
0, 0, 40, 1.012162158531282e-07
0, 0, 41, 1.021655791078047e-07
0, 0, 42, 1.034663483778786e-07
0, 0, 43, 1.022009428197634e-07
0, 0, 44, 1.035642611668663e-07
0, 0, 45, 1.03634612003134e-07
0, 0, 46, 1.036898495954119e-07
0, 0, 47, 1.039606019048733e-07
0, 0, 48, 1.034668315469389e-07
0, 0, 49, 1.03932002559759e-07
0, 0, 50, 1.037436447859363e-07
0, 0, 51, 1.044803283889451e-07
0, 0, 52, 1.049827673682557e-07
0, 0, 53, 1.05082200718698e-07
0, 0, 54, 1.04113929921823e-07
0, 0, 55, 1.05016809470726e-07
0, 0, 56, 1.057151806094225e-07
0, 0, 57, 1.058578646961905e-07
0, 0, 58, 1.065118908627483e-07
0, 0, 59, 1.066543546812682e-07
0, 0, 60, 1.083947935853757e-07
0, 0, 61, 1.067598063286823e-07
0, 0, 62, 1.071932587137781e-07
0, 0, 63, 1.073642224014293e-07
0, 0, 64, 1.084181491251002e-07
0, 0, 65, 1.080392806329655e-07
0, 0, 66, 1.080721503399218e-07
0, 0, 67, 1.084169127807399e-07
0, 0, 68, 1.089690471189897e-07
0, 0, 69, 1.088423076112122e-07
0, 0, 70, 1.089642864826601e-07
0, 0, 71, 1.095716157806237e-07
0, 0, 72, 1.099491697686972e-07
0, 0, 73, 1.094997585937563e-07
0, 0, 74, 1.103159448234692e-07
0, 0, 75, 1.105201548057266e-07
0, 0, 76, 1.108607108335491e-07
0, 0, 77, 1.109221798856197e-07
0, 0, 78, 1.111384335672483e-07
0, 0, 79, 1.116157051228583e-07
0, 0, 80, 1.119605812505142e-07
0, 0, 81, 1.12886624492603e-07
0, 0, 82, 1.120027661727363e-07
0, 0, 83, 1.128030220343135e-07
0, 0, 84, 1.13890820330198e-07
0, 0, 85, 1.131734066461831e-07
0, 0, 86, 1.130705626906092e-07
0, 0, 87, 1.138166609848668e-07
0, 0, 88, 1.137628515834876e-07
0, 0, 89, 1.138049441351541e-07
0, 0, 90, 1.141132699444825e-07
0, 0, 91, 1.146905290738687e-07
0, 0, 92, 1.152922664005018e-07
0, 0, 93, 1.150489481460681e-07
0, 0, 94, 1.157911455607064e-07
0, 0, 95, 1.157815248120642e-07
0, 0, 96, 1.170222887481032e-07
0, 0, 97, 1.17395856591429e-07
0, 0, 98, 1.178438893134626e-07
0, 0, 99, 1.189649552202354e-07
0, 0, 100, 1.188568390375622e-07
0, 0, 101, 1.183179563213343e-07
0, 0, 102, 1.18706481089248e-07
0, 0, 103, 1.201893269353604e-07
0, 0, 104, 1.202133574906838e-07
0, 0, 105, 1.201670016826029e-07
0, 0, 106, 1.211146525292861e-07
0, 0, 107, 1.221713148424897e-07
0, 0, 108, 1.221342387225377e-07
0, 0, 109, 1.227444101914443e-07
0, 0, 110, 1.230756367931463e-07
0, 0, 111, 1.23415503594515e-07
0, 0, 112, 1.235827085110941e-07
0, 0, 113, 1.241717910716034e-07
0, 0, 114, 1.245069682909161e-07
0, 0, 115, 1.249277801207427e-07
0, 0, 116, 1.255517361187231e-07
0, 0, 117, 1.259666220221334e-07
0, 0, 118, 1.260157063143197e-07
0, 0, 119, 1.268401774723316e-07
0, 0, 120, 1.279183123870098e-07
0, 0, 121, 1.287795612370246e-07
0, 0, 122, 1.285330881728441e-07
0, 0, 123, 1.288961328782534e-07
0, 0, 124, 1.299770246987464e-07
0, 0, 125, 1.301960708133265e-07
0, 0, 126, 1.311952360083524e-07
0, 0, 127, 1.323247005302619e-07
0, 0, 128, 1.324728486906679e-07
0, 0, 129, 1.336249653149935e-07
0, 0, 130, 1.348220877162021e-07
0, 0, 131, 1.346840150517892e-07
0, 0, 132, 1.365902306815769e-07
0, 0, 133, 1.365586967949639e-07
0, 0, 134, 1.373336999677122e-07
0, 0, 135, 1.381467029659689e-07
0, 0, 136, 1.394774500340645e-07
0, 0, 137, 1.397184519191796e-07
0, 0, 138, 1.417023014482766e-07
0, 0, 139, 1.420490036707633e-07
0, 0, 140, 1.429276892395137e-07
0, 0, 141, 1.43902681770669e-07
0, 0, 142, 1.448967310579974e-07
0, 0, 143, 1.45896507319776e-07
0, 0, 144, 1.468933987780474e-07
0, 0, 145, 1.486010177131902e-07
0, 0, 146, 1.498867732152576e-07
0, 0, 147, 1.513027427790803e-07
0, 0, 148, 1.524361010751818e-07
0, 0, 149, 1.54770418703265e-07
0, 0, 150, 1.561948010930791e-07
0, 0, 151, 1.577351866899335e-07
0, 0, 152, 1.593966345581066e-07
0, 0, 153, 1.616774483181871e-07
0, 0, 154, 1.634291351138017e-07
0, 0, 155, 1.654225343372673e-07
0, 0, 156, 1.665166564635001e-07
0, 0, 157, 1.691186639618536e-07
0, 0, 158, 1.722561222550212e-07
0, 0, 159, 1.749287292795998e-07
0, 0, 160, 1.779838072479833e-07
0, 0, 161, 1.81228841711345e-07
0, 0, 162, 1.844648096493984e-07
0, 0, 163, 1.88207280871211e-07
0, 0, 164, 1.91801433402361e-07
0, 0, 165, 1.965294131878181e-07
0, 0, 166, 2.010809510011313e-07
0, 0, 167, 2.070569280476775e-07
0, 0, 168, 2.130372536157665e-07
0, 0, 169, 2.189386378859126e-07
0, 0, 170, 2.256030739999915e-07
0, 0, 171, 2.336456645934959e-07
0, 0, 172, 2.43743471628477e-07
0, 0, 173, 2.539212573537952e-07
0, 0, 174, 2.681451860553352e-07
0, 0, 175, 2.837377905962057e-07
0, 0, 176, 3.036149394120002e-07
0, 0, 177, 3.30284194660635e-07
0, 0, 178, 3.613355090692494e-07
0, 0, 179, 3.936016241823381e-07
0, 0, 180, 4.17333325231084e-07
0, 0, 181, 4.106894380129233e-07
0, 0, 182, 3.573450442218018e-07
0, 0, 183, 2.620121222207672e-07
0, 0, 184, 1.582497617391709e-07
0, 0, 185, 7.483790653850519e-08
0, 0, 186, 2.814082655788752e-08
0, 0, 187, 8.577424104316833e-09
0, 0, 188, 2.240474028525341e-09
0, 0, 189, 9.205653461741292e-10
0, 0, 190, 6.810018660097228e-10
0, 0, 191, 7.308778582348907e-10
0, 0, 192, 7.094504428373227e-10
0, 0, 193, 8.508262427930902e-10
0, 0, 194, 7.353629372097714e-10
0, 0, 195, 7.38708760827933e-10
0, 0, 196, 7.792111400561907e-10
0, 0, 197, 6.823280829237888e-10
0, 0, 198, 7.729090700792085e-10
0, 0, 199, 7.956298953004648e-10
0, 0, 200, 7.473617835707103e-10
0, 0, 201, 7.338865626316249e-10
0, 0, 202, 7.793473644213122e-10
0, 0, 203, 7.867345663825631e-10
0, 0, 204, 7.451297912020038e-10
0, 0, 205, 7.100698362627611e-10
0, 0, 206, 7.7606282511411e-10
0, 0, 207, 9.025956648756051e-10
0, 0, 208, 7.012063152345149e-10
0, 0, 209, 7.092983422829491e-10
0, 0, 210, 5.380064727056322e-10
0, 0, 211, 6.405824204414046e-10
0, 0, 212, 6.420414755403669e-10
0, 0, 213, 6.2055188765342e-10
0, 0, 214, 5.775754874370875e-10
0, 0, 215, 7.826603809490962e-10
0, 0, 216, 6.588272150054308e-10
0, 0, 217, 6.213424774692555e-10
0, 0, 218, 4.802792608060713e-10
0, 0, 219, 6.317650846909828e-10
0, 0, 220, 6.481903902511021e-10
0, 0, 221, 7.21669279890591e-10
0, 0, 222, 7.435074222961191e-10
0, 0, 223, 8.619949753985168e-10
0, 0, 224, 7.13813008701436e-10
0, 0, 225, 6.829108945005657e-10
0, 0, 226, 6.960457765714523e-10
0, 0, 227, 5.177387962795876e-10
0, 0, 228, 5.262490998525493e-10
0, 0, 229, 5.375097034132637e-10
0, 0, 230, 5.105750267020426e-10
0, 0, 231, 5.058685137449004e-10
0, 0, 232, 6.70436317573575e-10
0, 0, 233, 7.140066315969307e-10
0, 0, 234, 4.839865730410509e-10
0, 0, 235, 6.168717203713925e-10
0, 0, 236, 5.021541515937145e-10
0, 0, 237, 4.717641277629525e-10
0, 0, 238, 6.550059938881247e-10
0, 0, 239, 3.845063711871433e-10
0, 0, 240, 4.024601762964153e-10
0, 0, 241, 4.987423807278901e-10
0, 0, 242, 3.670639348030136e-10
0, 0, 243, 4.165925659993519e-10
0, 0, 244, 5.407254644040904e-10
0, 0, 245, 4.516451101999053e-10
0, 0, 246, 3.214522814598553e-10
0, 0, 247, 5.011201453797298e-10
0, 0, 248, 5.137987257874954e-10
0, 0, 249, 4.560329613934044e-10
0, 0, 250, 4.867296565791435e-10
0, 0, 251, 3.982106588917844e-10
0, 0, 252, 4.26421620236539e-10
0, 0, 253, 3.402710890831884e-10
0, 0, 254, 4.637423223208259e-10
0, 0, 255, 5.107345657506812e-10
0, 0, 256, 3.851798324738809e-10
0, 0, 257, 4.902612760204761e-10
0, 0, 258, 3.781490398591103e-10
0, 0, 259, 3.866088837956028e-10
0, 0, 260, 5.390661805826369e-10
0, 0, 261, 4.377350426576498e-10
0, 0, 262, 4.69063787811308e-10
0, 0, 263, 5.237067446373089e-10
0, 0, 264, 4.348553739319527e-10
0, 0, 265, 4.619645777026449e-10
0, 0, 266, 4.411042364704798e-10
0, 0, 267, 4.44380476860573e-10
0, 0, 268, 4.006378007126443e-10
0, 0, 269, 3.320073105328447e-10
0, 0, 270, 4.141913201305414e-10
0, 0, 271, 4.482613724654527e-10
0, 0, 272, 2.975972801522175e-10
0, 0, 273, 3.343723631310525e-10
0, 0, 274, 4.344469783923444e-10
0, 0, 275, 3.403037018845367e-10
0, 0, 276, 2.322355502348827e-10
0, 0, 277, 3.756065458659918e-10
0, 0, 278, 3.741828513703638e-10
0, 0, 279, 3.942221271646673e-10
0, 0, 280, 3.680661331273427e-10
0, 0, 281, 4.516703400181399e-10
0, 0, 282, 3.445752017050552e-10
0, 0, 283, 2.730661530225831e-10
0, 0, 284, 2.471422511085564e-10
0, 0, 285, 3.054291264348308e-10
0, 0, 286, 2.777897079031533e-10
0, 0, 287, 3.18302773028023e-10
0, 0, 288, 3.826440553300614e-10
0, 0, 289, 2.942520116455682e-10
0, 0, 290, 2.952704192260569e-10
0, 0, 291, 2.878400295891481e-10
0, 0, 292, 3.854780938894464e-10
0, 0, 293, 3.536182457963832e-10
0, 0, 294, 3.312941032618255e-10
0, 0, 295, 2.385331654419787e-10
0, 0, 296, 2.498085072133449e-10
0, 0, 297, 3.668358949937556e-10
0, 0, 298, 3.083418242955105e-10
0, 0, 299, 2.759187323064793e-10
0, 0, 300, 2.590907488553285e-10
