# TOPAS Version: 3.9
# Parameter File: pristine_temp.txt
# Results for scorer: DosePhantom
# Scored in component: Phantom
# X in 1 bin  of 30 cm
# Y in 1 bin  of 30 cm
# Z in 301 bins of 0.0996678 cm
# DoseToMedium ( Gy ) : Sum   
0, 0, 0, 8.104199622493979e-08
0, 0, 1, 8.373331183975097e-08
0, 0, 2, 8.422787090012207e-08
0, 0, 3, 8.45137648752825e-08
0, 0, 4, 8.510458116006703e-08
0, 0, 5, 8.584723332205613e-08
0, 0, 6, 8.594591349719849e-08
0, 0, 7, 8.674736307057174e-08
0, 0, 8, 8.672854079350145e-08
0, 0, 9, 8.784505922676544e-08
0, 0, 10, 8.713603705245987e-08
0, 0, 11, 8.725445610480165e-08
0, 0, 12, 8.803399964563141e-08
0, 0, 13, 8.834996378936921e-08
0, 0, 14, 8.889293212632765e-08
0, 0, 15, 8.874756929344585e-08
0, 0, 16, 8.917078275771928e-08
0, 0, 17, 8.929747252750531e-08
0, 0, 18, 8.943855078769047e-08
0, 0, 19, 8.994492617375727e-08
0, 0, 20, 9.027095160263343e-08
0, 0, 21, 9.069422191032572e-08
0, 0, 22, 9.114017984757083e-08
0, 0, 23, 9.101813702727668e-08
0, 0, 24, 9.139566259364074e-08
0, 0, 25, 9.145713164571134e-08
0, 0, 26, 9.208289242224055e-08
0, 0, 27, 9.15969380343995e-08
0, 0, 28, 9.158021896382706e-08
0, 0, 29, 9.188404703763808e-08
0, 0, 30, 9.213363938442853e-08
0, 0, 31, 9.296657310642331e-08
0, 0, 32, 9.324949701294827e-08
0, 0, 33, 9.296645231415823e-08
0, 0, 34, 9.372374876193135e-08
0, 0, 35, 9.359192176816578e-08
0, 0, 36, 9.361858843703885e-08
0, 0, 37, 9.345133378246828e-08
0, 0, 38, 9.394088351655228e-08
0, 0, 39, 9.382176813232945e-08
0, 0, 40, 9.39882554007454e-08
0, 0, 41, 9.448083915231109e-08
0, 0, 42, 9.487283847420258e-08
0, 0, 43, 9.42943501058835e-08
0, 0, 44, 9.453694360672671e-08
0, 0, 45, 9.524227806423369e-08
0, 0, 46, 9.596963224112187e-08
0, 0, 47, 9.592705652039513e-08
0, 0, 48, 9.509961529374777e-08
0, 0, 49, 9.551338564506295e-08
0, 0, 50, 9.638259967914564e-08
0, 0, 51, 9.699975578314479e-08
0, 0, 52, 9.668895017966861e-08
0, 0, 53, 9.653256682895517e-08
0, 0, 54, 9.696674396764138e-08
0, 0, 55, 9.67705986454348e-08
0, 0, 56, 9.729885874776301e-08
0, 0, 57, 9.706022296995798e-08
0, 0, 58, 9.75884972831409e-08
0, 0, 59, 9.773017950465146e-08
0, 0, 60, 9.814841206434721e-08
0, 0, 61, 9.763694919229238e-08
0, 0, 62, 9.856556459908461e-08
0, 0, 63, 9.988647065028999e-08
0, 0, 64, 1.000066518486165e-07
0, 0, 65, 1.00160235660951e-07
0, 0, 66, 9.905556197509213e-08
0, 0, 67, 9.922478483304076e-08
0, 0, 68, 9.926401389748207e-08
0, 0, 69, 9.934332467764762e-08
0, 0, 70, 9.952645996236242e-08
0, 0, 71, 1.00078729303732e-07
0, 0, 72, 9.991406102471956e-08
0, 0, 73, 9.901265940470694e-08
0, 0, 74, 9.94959634681436e-08
0, 0, 75, 1.005105403351081e-07
0, 0, 76, 1.009317429634393e-07
0, 0, 77, 1.009731747103615e-07
0, 0, 78, 1.009300660825829e-07
0, 0, 79, 1.011242432014114e-07
0, 0, 80, 1.009478438618316e-07
0, 0, 81, 1.014585322423045e-07
0, 0, 82, 1.021205591200669e-07
0, 0, 83, 1.022970579356297e-07
0, 0, 84, 1.027323079938469e-07
0, 0, 85, 1.023031614977299e-07
0, 0, 86, 1.023660232135626e-07
0, 0, 87, 1.025821632083534e-07
0, 0, 88, 1.029473182256879e-07
0, 0, 89, 1.029774807648209e-07
0, 0, 90, 1.025050053726773e-07
0, 0, 91, 1.029029590426944e-07
0, 0, 92, 1.032215450891272e-07
0, 0, 93, 1.029527467721891e-07
0, 0, 94, 1.030782712518885e-07
0, 0, 95, 1.039420851611794e-07
0, 0, 96, 1.035686949535375e-07
0, 0, 97, 1.041898585185663e-07
0, 0, 98, 1.037828241123862e-07
0, 0, 99, 1.043506046016773e-07
0, 0, 100, 1.044454691623287e-07
0, 0, 101, 1.051908355975684e-07
0, 0, 102, 1.053155074259848e-07
0, 0, 103, 1.059224814525805e-07
0, 0, 104, 1.057955287819823e-07
0, 0, 105, 1.063226733322153e-07
0, 0, 106, 1.05555535867552e-07
0, 0, 107, 1.061938590396494e-07
0, 0, 108, 1.069333066539002e-07
0, 0, 109, 1.07033663709899e-07
0, 0, 110, 1.06592040083342e-07
0, 0, 111, 1.067225312567643e-07
0, 0, 112, 1.078362359407947e-07
0, 0, 113, 1.073583106858678e-07
0, 0, 114, 1.081204032971073e-07
0, 0, 115, 1.078624336514622e-07
0, 0, 116, 1.085838121639426e-07
0, 0, 117, 1.083297291870622e-07
0, 0, 118, 1.090931860403543e-07
0, 0, 119, 1.091637287231606e-07
0, 0, 120, 1.087773000563175e-07
0, 0, 121, 1.097927864179837e-07
0, 0, 122, 1.105857734273741e-07
0, 0, 123, 1.101398297009837e-07
0, 0, 124, 1.102765452287713e-07
0, 0, 125, 1.101905056088981e-07
0, 0, 126, 1.105300810877452e-07
0, 0, 127, 1.102521736129347e-07
0, 0, 128, 1.115029064635564e-07
0, 0, 129, 1.112266261316108e-07
0, 0, 130, 1.114391210421672e-07
0, 0, 131, 1.11463258178901e-07
0, 0, 132, 1.125257469425378e-07
0, 0, 133, 1.12713301803069e-07
0, 0, 134, 1.127943249912278e-07
0, 0, 135, 1.13976021509643e-07
0, 0, 136, 1.139012226758496e-07
0, 0, 137, 1.134246119249838e-07
0, 0, 138, 1.135701310772674e-07
0, 0, 139, 1.141911880608859e-07
0, 0, 140, 1.148109731730074e-07
0, 0, 141, 1.153993594016356e-07
0, 0, 142, 1.148793558058969e-07
0, 0, 143, 1.152198194631637e-07
0, 0, 144, 1.158059674821743e-07
0, 0, 145, 1.162323570724766e-07
0, 0, 146, 1.164989313906517e-07
0, 0, 147, 1.170078505197125e-07
0, 0, 148, 1.173659214259715e-07
0, 0, 149, 1.168298737752593e-07
0, 0, 150, 1.17861382875617e-07
0, 0, 151, 1.18089964473711e-07
0, 0, 152, 1.187622089560136e-07
0, 0, 153, 1.194699450479675e-07
0, 0, 154, 1.19146058352726e-07
0, 0, 155, 1.201254207217062e-07
0, 0, 156, 1.202353274720735e-07
0, 0, 157, 1.209825484238536e-07
0, 0, 158, 1.208176598765931e-07
0, 0, 159, 1.212228113445235e-07
0, 0, 160, 1.223673535832859e-07
0, 0, 161, 1.229902863997268e-07
0, 0, 162, 1.237640958606789e-07
0, 0, 163, 1.239990723433948e-07
0, 0, 164, 1.24463213069248e-07
0, 0, 165, 1.247676237881024e-07
0, 0, 166, 1.267077891498047e-07
0, 0, 167, 1.268562357381597e-07
0, 0, 168, 1.273245828770087e-07
0, 0, 169, 1.283078177038988e-07
0, 0, 170, 1.287234709934637e-07
0, 0, 171, 1.29677758309299e-07
0, 0, 172, 1.300565628525874e-07
0, 0, 173, 1.316956712571482e-07
0, 0, 174, 1.317087452434862e-07
0, 0, 175, 1.320310900609911e-07
0, 0, 176, 1.331256243020107e-07
0, 0, 177, 1.339863757721105e-07
0, 0, 178, 1.349128240235586e-07
0, 0, 179, 1.359170767045725e-07
0, 0, 180, 1.369748758861533e-07
0, 0, 181, 1.380994802957503e-07
0, 0, 182, 1.390626067632184e-07
0, 0, 183, 1.400529185957566e-07
0, 0, 184, 1.409646728234293e-07
0, 0, 185, 1.427679734433696e-07
0, 0, 186, 1.439858721141718e-07
0, 0, 187, 1.450641349265425e-07
0, 0, 188, 1.463828880332585e-07
0, 0, 189, 1.475391826488703e-07
0, 0, 190, 1.486046414811426e-07
0, 0, 191, 1.503692459436934e-07
0, 0, 192, 1.526810819996172e-07
0, 0, 193, 1.5438246236954e-07
0, 0, 194, 1.556997943907845e-07
0, 0, 195, 1.583365900614808e-07
0, 0, 196, 1.597270653519445e-07
0, 0, 197, 1.622187113525797e-07
0, 0, 198, 1.641393936324675e-07
0, 0, 199, 1.662828452708709e-07
0, 0, 200, 1.693684907877469e-07
0, 0, 201, 1.72220751437635e-07
0, 0, 202, 1.757127137125281e-07
0, 0, 203, 1.786949184179321e-07
0, 0, 204, 1.831024718512708e-07
0, 0, 205, 1.864736987045035e-07
0, 0, 206, 1.917068317425219e-07
0, 0, 207, 1.972195491362072e-07
0, 0, 208, 2.023197680500743e-07
0, 0, 209, 2.081349634863727e-07
0, 0, 210, 2.159590195560668e-07
0, 0, 211, 2.242641272687251e-07
0, 0, 212, 2.327398078705301e-07
0, 0, 213, 2.439088291339431e-07
0, 0, 214, 2.56618307048484e-07
0, 0, 215, 2.716418805448484e-07
0, 0, 216, 2.912956915679388e-07
0, 0, 217, 3.132606138933625e-07
0, 0, 218, 3.389878600046359e-07
0, 0, 219, 3.601865046221064e-07
0, 0, 220, 3.699114188293606e-07
0, 0, 221, 3.563410757578822e-07
0, 0, 222, 3.148920768580865e-07
0, 0, 223, 2.48315274120614e-07
0, 0, 224, 1.700048528618936e-07
0, 0, 225, 1.009877834690087e-07
0, 0, 226, 5.055642304796493e-08
0, 0, 227, 2.117788255873165e-08
0, 0, 228, 7.928719902849934e-09
0, 0, 229, 2.725599745900809e-09
0, 0, 230, 1.336625810033354e-09
0, 0, 231, 7.79206643652941e-10
0, 0, 232, 7.471518403967536e-10
0, 0, 233, 8.704948983861982e-10
0, 0, 234, 7.739416885144124e-10
0, 0, 235, 7.562627746260375e-10
0, 0, 236, 9.523000166211659e-10
0, 0, 237, 8.245376603710497e-10
0, 0, 238, 6.759805493139481e-10
0, 0, 239, 7.336373175625965e-10
0, 0, 240, 7.002348700879679e-10
0, 0, 241, 8.080401348031785e-10
0, 0, 242, 7.108014732359891e-10
0, 0, 243, 8.34487146050833e-10
0, 0, 244, 8.097822967734203e-10
0, 0, 245, 8.342092017166181e-10
0, 0, 246, 8.859753486412103e-10
0, 0, 247, 6.373532257519798e-10
0, 0, 248, 6.296351218182394e-10
0, 0, 249, 7.058121309633236e-10
0, 0, 250, 6.944294028699005e-10
0, 0, 251, 7.215585351438847e-10
0, 0, 252, 5.953493253940678e-10
0, 0, 253, 6.150347453548477e-10
0, 0, 254, 6.175281397347021e-10
0, 0, 255, 5.643047695791381e-10
0, 0, 256, 5.054815455096673e-10
0, 0, 257, 5.31013344406972e-10
0, 0, 258, 7.584151084927271e-10
0, 0, 259, 6.423468423832901e-10
0, 0, 260, 8.641600768299895e-10
0, 0, 261, 6.763913318330594e-10
0, 0, 262, 6.380118655613387e-10
0, 0, 263, 5.410772385694429e-10
0, 0, 264, 5.558647431236352e-10
0, 0, 265, 4.822175991847644e-10
0, 0, 266, 5.143798720297355e-10
0, 0, 267, 5.403633096534577e-10
0, 0, 268, 5.889188581242877e-10
0, 0, 269, 4.876840598022625e-10
0, 0, 270, 7.199071894170572e-10
0, 0, 271, 5.711492945259522e-10
0, 0, 272, 6.750716097236875e-10
0, 0, 273, 5.367921662724484e-10
0, 0, 274, 6.398406804386525e-10
0, 0, 275, 5.700885874482253e-10
0, 0, 276, 5.20802512227192e-10
0, 0, 277, 5.205697539700793e-10
0, 0, 278, 5.057994578727687e-10
0, 0, 279, 5.126701840829639e-10
0, 0, 280, 4.59190102608531e-10
0, 0, 281, 6.016356302041004e-10
0, 0, 282, 5.817581971712116e-10
0, 0, 283, 5.325094809549569e-10
0, 0, 284, 5.247969836474908e-10
0, 0, 285, 5.723800322599004e-10
0, 0, 286, 5.276309944513002e-10
0, 0, 287, 3.76696479564842e-10
0, 0, 288, 5.737942343486679e-10
0, 0, 289, 5.658472579384011e-10
0, 0, 290, 5.46373501997266e-10
0, 0, 291, 3.102846035663021e-10
0, 0, 292, 3.705294404632298e-10
0, 0, 293, 4.479144832814086e-10
0, 0, 294, 3.281856453263288e-10
0, 0, 295, 4.196712144466375e-10
0, 0, 296, 5.241511669140664e-10
0, 0, 297, 4.402919417945128e-10
0, 0, 298, 4.39086739190131e-10
0, 0, 299, 4.640369200004102e-10
0, 0, 300, 4.136078701755252e-10
