# TOPAS Version: 3.9
# Parameter File: pristine_temp.txt
# Results for scorer: DosePhantom
# Scored in component: Phantom
# X in 1 bin  of 30 cm
# Y in 1 bin  of 30 cm
# Z in 301 bins of 0.0996678 cm
# DoseToMedium ( Gy ) : Sum   
0, 0, 0, 8.350434654857963e-08
0, 0, 1, 8.594372502557235e-08
0, 0, 2, 8.627426240082059e-08
0, 0, 3, 8.693378816815311e-08
0, 0, 4, 8.699819886714977e-08
0, 0, 5, 8.777420390515545e-08
0, 0, 6, 8.872268608683953e-08
0, 0, 7, 8.823047892292379e-08
0, 0, 8, 8.895305114720031e-08
0, 0, 9, 9.007209200717625e-08
0, 0, 10, 8.982597421436367e-08
0, 0, 11, 9.000604705988735e-08
0, 0, 12, 9.013986357331305e-08
0, 0, 13, 9.074565099354004e-08
0, 0, 14, 9.050596361248608e-08
0, 0, 15, 9.089237096304714e-08
0, 0, 16, 9.156998004300476e-08
0, 0, 17, 9.108184428896493e-08
0, 0, 18, 9.156855895753324e-08
0, 0, 19, 9.246531362805399e-08
0, 0, 20, 9.302869585781082e-08
0, 0, 21, 9.28168546465713e-08
0, 0, 22, 9.285074753506706e-08
0, 0, 23, 9.386109667275377e-08
0, 0, 24, 9.387219535028635e-08
0, 0, 25, 9.37000095291296e-08
0, 0, 26, 9.393914268684966e-08
0, 0, 27, 9.372344322855497e-08
0, 0, 28, 9.451706262098014e-08
0, 0, 29, 9.459940741862738e-08
0, 0, 30, 9.480883278456531e-08
0, 0, 31, 9.586187843524385e-08
0, 0, 32, 9.544405088490748e-08
0, 0, 33, 9.546012336159038e-08
0, 0, 34, 9.551688151532289e-08
0, 0, 35, 9.641140508165336e-08
0, 0, 36, 9.641026821327614e-08
0, 0, 37, 9.659699173880654e-08
0, 0, 38, 9.598235095609198e-08
0, 0, 39, 9.665819078463755e-08
0, 0, 40, 9.62891775202479e-08
0, 0, 41, 9.718660720636763e-08
0, 0, 42, 9.732261929684682e-08
0, 0, 43, 9.684490720474059e-08
0, 0, 44, 9.767236974767002e-08
0, 0, 45, 9.772455200618424e-08
0, 0, 46, 9.79432570602512e-08
0, 0, 47, 9.767860831288999e-08
0, 0, 48, 9.847276061236698e-08
0, 0, 49, 9.835140701852652e-08
0, 0, 50, 9.947527956910562e-08
0, 0, 51, 9.907991227464663e-08
0, 0, 52, 9.929910760320126e-08
0, 0, 53, 9.944205459078148e-08
0, 0, 54, 9.937636491486046e-08
0, 0, 55, 9.975453707511406e-08
0, 0, 56, 1.001866891670034e-07
0, 0, 57, 9.991127569719538e-08
0, 0, 58, 1.009034704679834e-07
0, 0, 59, 1.00814723680287e-07
0, 0, 60, 1.022142654960589e-07
0, 0, 61, 1.008182906048205e-07
0, 0, 62, 1.018091069227012e-07
0, 0, 63, 1.017101709521739e-07
0, 0, 64, 1.02496933607199e-07
0, 0, 65, 1.019625486264886e-07
0, 0, 66, 1.016496185002325e-07
0, 0, 67, 1.020018558506308e-07
0, 0, 68, 1.028720291174068e-07
0, 0, 69, 1.025536633392221e-07
0, 0, 70, 1.028065952368706e-07
0, 0, 71, 1.040913844008173e-07
0, 0, 72, 1.032317697990948e-07
0, 0, 73, 1.03838594611716e-07
0, 0, 74, 1.035997954090817e-07
0, 0, 75, 1.034258971799318e-07
0, 0, 76, 1.03840740450778e-07
0, 0, 77, 1.043050872340245e-07
0, 0, 78, 1.046995663500638e-07
0, 0, 79, 1.048963866878694e-07
0, 0, 80, 1.053097449243978e-07
0, 0, 81, 1.048397493264019e-07
0, 0, 82, 1.058870537917755e-07
0, 0, 83, 1.054078069273601e-07
0, 0, 84, 1.056105460861545e-07
0, 0, 85, 1.064714822973656e-07
0, 0, 86, 1.062250944983134e-07
0, 0, 87, 1.059750331933174e-07
0, 0, 88, 1.065261798771644e-07
0, 0, 89, 1.067147508138078e-07
0, 0, 90, 1.066749888423146e-07
0, 0, 91, 1.076228315355365e-07
0, 0, 92, 1.075845759146432e-07
0, 0, 93, 1.075557420904261e-07
0, 0, 94, 1.080971046008017e-07
0, 0, 95, 1.08125703945916e-07
0, 0, 96, 1.083248122313307e-07
0, 0, 97, 1.091936354669087e-07
0, 0, 98, 1.085572662873346e-07
0, 0, 99, 1.085667804545665e-07
0, 0, 100, 1.087858478854287e-07
0, 0, 101, 1.090107630830062e-07
0, 0, 102, 1.096800659183828e-07
0, 0, 103, 1.098415367550842e-07
0, 0, 104, 1.104476794466791e-07
0, 0, 105, 1.117067753853007e-07
0, 0, 106, 1.109643434915597e-07
0, 0, 107, 1.109174476709995e-07
0, 0, 108, 1.114233754151428e-07
0, 0, 109, 1.122732911085222e-07
0, 0, 110, 1.118467807259549e-07
0, 0, 111, 1.123948223380467e-07
0, 0, 112, 1.128227680169402e-07
0, 0, 113, 1.125202047091989e-07
0, 0, 114, 1.135635088189701e-07
0, 0, 115, 1.1358160634245e-07
0, 0, 116, 1.135518132855395e-07
0, 0, 117, 1.140221499440486e-07
0, 0, 118, 1.136761440534428e-07
0, 0, 119, 1.14656380389988e-07
0, 0, 120, 1.143811800830008e-07
0, 0, 121, 1.158255713562539e-07
0, 0, 122, 1.152129911474731e-07
0, 0, 123, 1.157071451984848e-07
0, 0, 124, 1.153909536810716e-07
0, 0, 125, 1.163920302360566e-07
0, 0, 126, 1.16885502166042e-07
0, 0, 127, 1.17769644703003e-07
0, 0, 128, 1.172902841517498e-07
0, 0, 129, 1.181255058213537e-07
0, 0, 130, 1.181193667321168e-07
0, 0, 131, 1.186251807894223e-07
0, 0, 132, 1.19697901368454e-07
0, 0, 133, 1.191472094319579e-07
0, 0, 134, 1.207724125151799e-07
0, 0, 135, 1.20049932661459e-07
0, 0, 136, 1.206850015478267e-07
0, 0, 137, 1.206154394139958e-07
0, 0, 138, 1.21757992133098e-07
0, 0, 139, 1.221329597456133e-07
0, 0, 140, 1.227369494927188e-07
0, 0, 141, 1.229112882583649e-07
0, 0, 142, 1.231626640674222e-07
0, 0, 143, 1.237061724168598e-07
0, 0, 144, 1.239965996546744e-07
0, 0, 145, 1.249926100399534e-07
0, 0, 146, 1.255254034049358e-07
0, 0, 147, 1.261262951857134e-07
0, 0, 148, 1.267244869040951e-07
0, 0, 149, 1.275708285675137e-07
0, 0, 150, 1.286520614485198e-07
0, 0, 151, 1.292286384568797e-07
0, 0, 152, 1.296903207048672e-07
0, 0, 153, 1.305544259366798e-07
0, 0, 154, 1.308899726382151e-07
0, 0, 155, 1.319767335417055e-07
0, 0, 156, 1.322782452461979e-07
0, 0, 157, 1.330341490302089e-07
0, 0, 158, 1.34281847863349e-07
0, 0, 159, 1.357409473712323e-07
0, 0, 160, 1.351309322217276e-07
0, 0, 161, 1.366754958098682e-07
0, 0, 162, 1.370877953377203e-07
0, 0, 163, 1.386231076594413e-07
0, 0, 164, 1.395717390550999e-07
0, 0, 165, 1.405250600328145e-07
0, 0, 166, 1.411261507655581e-07
0, 0, 167, 1.427028024636456e-07
0, 0, 168, 1.440287462628476e-07
0, 0, 169, 1.445076804884593e-07
0, 0, 170, 1.463475740592912e-07
0, 0, 171, 1.471684782927696e-07
0, 0, 172, 1.483750509123638e-07
0, 0, 173, 1.49983904407236e-07
0, 0, 174, 1.517424692565328e-07
0, 0, 175, 1.527620412389297e-07
0, 0, 176, 1.545891876730821e-07
0, 0, 177, 1.565255729474302e-07
0, 0, 178, 1.586693372246373e-07
0, 0, 179, 1.607022710459205e-07
0, 0, 180, 1.627127517167537e-07
0, 0, 181, 1.654728123412497e-07
0, 0, 182, 1.678758394518809e-07
0, 0, 183, 1.704016341363968e-07
0, 0, 184, 1.732192913550534e-07
0, 0, 185, 1.75514273337285e-07
0, 0, 186, 1.792972454950359e-07
0, 0, 187, 1.8263921219841e-07
0, 0, 188, 1.867752956741242e-07
0, 0, 189, 1.904297306509761e-07
0, 0, 190, 1.949829453451457e-07
0, 0, 191, 2.001895609282656e-07
0, 0, 192, 2.055949863688511e-07
0, 0, 193, 2.120443554076701e-07
0, 0, 194, 2.185910403795788e-07
0, 0, 195, 2.268101724212102e-07
0, 0, 196, 2.367118128177026e-07
0, 0, 197, 2.474802158758393e-07
0, 0, 198, 2.607366980100778e-07
0, 0, 199, 2.761752000424167e-07
0, 0, 200, 2.951720716737327e-07
0, 0, 201, 3.186171113611636e-07
0, 0, 202, 3.461125288595213e-07
0, 0, 203, 3.72381549595957e-07
0, 0, 204, 3.878634800003056e-07
0, 0, 205, 3.796207010964281e-07
0, 0, 206, 3.351709949583892e-07
0, 0, 207, 2.598424373445596e-07
0, 0, 208, 1.724079510267984e-07
0, 0, 209, 9.626894126313346e-08
0, 0, 210, 4.283623766809797e-08
0, 0, 211, 1.618378142609345e-08
0, 0, 212, 5.295590632670155e-09
0, 0, 213, 1.76237779925259e-09
0, 0, 214, 1.147698491799076e-09
0, 0, 215, 9.22414811199701e-10
0, 0, 216, 7.037684879307449e-10
0, 0, 217, 8.116688987591658e-10
0, 0, 218, 8.224883552010454e-10
0, 0, 219, 8.404600904121651e-10
0, 0, 220, 8.448560184781684e-10
0, 0, 221, 8.05237543310966e-10
0, 0, 222, 7.191924278338035e-10
0, 0, 223, 8.245276128526768e-10
0, 0, 224, 7.348039399168727e-10
0, 0, 225, 7.724993422719706e-10
0, 0, 226, 8.035784815341174e-10
0, 0, 227, 5.930872459813941e-10
0, 0, 228, 6.921062056797211e-10
0, 0, 229, 6.907834859681827e-10
0, 0, 230, 7.905959220622094e-10
0, 0, 231, 9.594951499991566e-10
0, 0, 232, 5.848571071886965e-10
0, 0, 233, 7.268425306072857e-10
0, 0, 234, 6.751922909664643e-10
0, 0, 235, 7.280184233238174e-10
0, 0, 236, 7.242859645373301e-10
0, 0, 237, 7.322730199987859e-10
0, 0, 238, 7.137407886936842e-10
0, 0, 239, 6.532663854308396e-10
0, 0, 240, 6.112392259005617e-10
0, 0, 241, 5.554332549451146e-10
0, 0, 242, 6.807643893047555e-10
0, 0, 243, 5.589047558096638e-10
0, 0, 244, 7.588165096272803e-10
0, 0, 245, 7.869587204112349e-10
0, 0, 246, 5.524816715229974e-10
0, 0, 247, 8.350363178699638e-10
0, 0, 248, 6.117764628221778e-10
0, 0, 249, 5.327863150661472e-10
0, 0, 250, 6.951464404103547e-10
0, 0, 251, 6.98114843711295e-10
0, 0, 252, 6.491195359004109e-10
0, 0, 253, 6.921077599919556e-10
0, 0, 254, 5.926055202110092e-10
0, 0, 255, 6.047270462161691e-10
0, 0, 256, 5.644532619086817e-10
0, 0, 257, 4.606020564956737e-10
0, 0, 258, 5.966417915281852e-10
0, 0, 259, 5.11654107970827e-10
0, 0, 260, 5.450589979361098e-10
0, 0, 261, 5.22450860351853e-10
0, 0, 262, 6.306777877718162e-10
0, 0, 263, 6.083440973192467e-10
0, 0, 264, 5.369445998937294e-10
0, 0, 265, 5.586917040112382e-10
0, 0, 266, 4.964982869282153e-10
0, 0, 267, 4.647133233781631e-10
0, 0, 268, 4.88691642708261e-10
0, 0, 269, 4.33678759570455e-10
0, 0, 270, 4.98777630308922e-10
0, 0, 271, 5.245143763765725e-10
0, 0, 272, 5.547377557313382e-10
0, 0, 273, 5.53809942349659e-10
0, 0, 274, 5.303746886120564e-10
0, 0, 275, 5.067354869048302e-10
0, 0, 276, 6.24967910756169e-10
0, 0, 277, 4.401726760860925e-10
0, 0, 278, 5.808344916147234e-10
0, 0, 279, 5.815796733088519e-10
0, 0, 280, 4.802846453877407e-10
0, 0, 281, 5.742753494963893e-10
0, 0, 282, 4.627465632900396e-10
0, 0, 283, 4.682776943987221e-10
0, 0, 284, 5.818421855430245e-10
0, 0, 285, 4.77583306235374e-10
0, 0, 286, 5.484218634776994e-10
0, 0, 287, 5.188954821377934e-10
0, 0, 288, 4.274063047926546e-10
0, 0, 289, 4.460063429689853e-10
0, 0, 290, 3.448320240462266e-10
0, 0, 291, 3.630676315147241e-10
0, 0, 292, 5.457023721788801e-10
0, 0, 293, 3.6961422811288e-10
0, 0, 294, 4.038580581067208e-10
0, 0, 295, 3.452535757286768e-10
0, 0, 296, 4.293666255872353e-10
0, 0, 297, 3.787837266067129e-10
0, 0, 298, 3.135624815353566e-10
0, 0, 299, 3.891059141558628e-10
0, 0, 300, 3.807302251246369e-10
