# TOPAS Version: 3.9
# Parameter File: pristine_temp.txt
# Results for scorer: DosePhantom
# Scored in component: Phantom
# X in 1 bin  of 30 cm
# Y in 1 bin  of 30 cm
# Z in 301 bins of 0.0996678 cm
# DoseToMedium ( Gy ) : Sum   
0, 0, 0, 8.38569675920553e-08
0, 0, 1, 8.64452971427454e-08
0, 0, 2, 8.706818732662214e-08
0, 0, 3, 8.735815271165848e-08
0, 0, 4, 8.775577242658983e-08
0, 0, 5, 8.844295962262549e-08
0, 0, 6, 8.935618467376116e-08
0, 0, 7, 8.917336913327745e-08
0, 0, 8, 8.917100302596737e-08
0, 0, 9, 9.025519887018163e-08
0, 0, 10, 8.998534894999466e-08
0, 0, 11, 9.008848422809024e-08
0, 0, 12, 9.015001722900706e-08
0, 0, 13, 9.033109193978817e-08
0, 0, 14, 9.096520159346255e-08
0, 0, 15, 9.083734653358988e-08
0, 0, 16, 9.106733500630071e-08
0, 0, 17, 9.159232661204442e-08
0, 0, 18, 9.186022964513541e-08
0, 0, 19, 9.264596201319364e-08
0, 0, 20, 9.356789831826973e-08
0, 0, 21, 9.340604378849093e-08
0, 0, 22, 9.357411556720763e-08
0, 0, 23, 9.370926790097656e-08
0, 0, 24, 9.404768519516438e-08
0, 0, 25, 9.436935499707033e-08
0, 0, 26, 9.433124859015152e-08
0, 0, 27, 9.453756888433418e-08
0, 0, 28, 9.504905307267109e-08
0, 0, 29, 9.517798105207476e-08
0, 0, 30, 9.538335632441886e-08
0, 0, 31, 9.542097956227735e-08
0, 0, 32, 9.591774841055667e-08
0, 0, 33, 9.617628649039034e-08
0, 0, 34, 9.628707431375005e-08
0, 0, 35, 9.686380053608445e-08
0, 0, 36, 9.663507682944328e-08
0, 0, 37, 9.712579895904128e-08
0, 0, 38, 9.745589579779335e-08
0, 0, 39, 9.713324544691204e-08
0, 0, 40, 9.715221693795684e-08
0, 0, 41, 9.781469145764277e-08
0, 0, 42, 9.85749011306325e-08
0, 0, 43, 9.812592338676041e-08
0, 0, 44, 9.864162819894773e-08
0, 0, 45, 9.921900101517167e-08
0, 0, 46, 9.953191693057306e-08
0, 0, 47, 9.940630008031803e-08
0, 0, 48, 9.942465339918272e-08
0, 0, 49, 9.928938737857607e-08
0, 0, 50, 1.000605251988418e-07
0, 0, 51, 1.001119755983382e-07
0, 0, 52, 1.006793581836973e-07
0, 0, 53, 9.997324923460837e-08
0, 0, 54, 1.003151481882014e-07
0, 0, 55, 9.995341798685331e-08
0, 0, 56, 1.014995376635852e-07
0, 0, 57, 1.01041436550986e-07
0, 0, 58, 1.012744590411785e-07
0, 0, 59, 1.017140363046565e-07
0, 0, 60, 1.024636162583192e-07
0, 0, 61, 1.015646375890356e-07
0, 0, 62, 1.018044883949187e-07
0, 0, 63, 1.029827600973476e-07
0, 0, 64, 1.0287024565514e-07
0, 0, 65, 1.027510165840795e-07
0, 0, 66, 1.025219376060704e-07
0, 0, 67, 1.031929528494402e-07
0, 0, 68, 1.025878546556669e-07
0, 0, 69, 1.034840764191358e-07
0, 0, 70, 1.035015486650082e-07
0, 0, 71, 1.048465279041011e-07
0, 0, 72, 1.045630781959517e-07
0, 0, 73, 1.046545889948902e-07
0, 0, 74, 1.048871851594413e-07
0, 0, 75, 1.052299225534625e-07
0, 0, 76, 1.05132649252937e-07
0, 0, 77, 1.050564435445267e-07
0, 0, 78, 1.05286957818862e-07
0, 0, 79, 1.062095975612465e-07
0, 0, 80, 1.05546178019722e-07
0, 0, 81, 1.060031635802261e-07
0, 0, 82, 1.063089882791246e-07
0, 0, 83, 1.058329885950116e-07
0, 0, 84, 1.067098551743584e-07
0, 0, 85, 1.071676720698633e-07
0, 0, 86, 1.065858867832503e-07
0, 0, 87, 1.062564649600972e-07
0, 0, 88, 1.069926440777635e-07
0, 0, 89, 1.072537898494375e-07
0, 0, 90, 1.07104320079543e-07
0, 0, 91, 1.076909867947506e-07
0, 0, 92, 1.083025935599835e-07
0, 0, 93, 1.078756568517747e-07
0, 0, 94, 1.083875531548983e-07
0, 0, 95, 1.082353620063259e-07
0, 0, 96, 1.087391581222619e-07
0, 0, 97, 1.091110135575946e-07
0, 0, 98, 1.093738504209796e-07
0, 0, 99, 1.098534241350535e-07
0, 0, 100, 1.106737599343433e-07
0, 0, 101, 1.108039882069534e-07
0, 0, 102, 1.114288821213449e-07
0, 0, 103, 1.110512926061347e-07
0, 0, 104, 1.11088773735446e-07
0, 0, 105, 1.120022048439751e-07
0, 0, 106, 1.120314365721242e-07
0, 0, 107, 1.118030823477056e-07
0, 0, 108, 1.129642868136216e-07
0, 0, 109, 1.135898912707489e-07
0, 0, 110, 1.136734297801922e-07
0, 0, 111, 1.136086211772636e-07
0, 0, 112, 1.139828498253337e-07
0, 0, 113, 1.146598478385386e-07
0, 0, 114, 1.15315835103047e-07
0, 0, 115, 1.153800326392229e-07
0, 0, 116, 1.148037824805215e-07
0, 0, 117, 1.152692874484273e-07
0, 0, 118, 1.154135134129319e-07
0, 0, 119, 1.158048732463612e-07
0, 0, 120, 1.158196383244103e-07
0, 0, 121, 1.173820507460732e-07
0, 0, 122, 1.163791765179667e-07
0, 0, 123, 1.172136876448349e-07
0, 0, 124, 1.17188733383955e-07
0, 0, 125, 1.179831485842442e-07
0, 0, 126, 1.178229425136124e-07
0, 0, 127, 1.18646674707179e-07
0, 0, 128, 1.190149347962688e-07
0, 0, 129, 1.191788570054086e-07
0, 0, 130, 1.189648699551071e-07
0, 0, 131, 1.204048629688259e-07
0, 0, 132, 1.207243656153878e-07
0, 0, 133, 1.210388802519446e-07
0, 0, 134, 1.215318974345792e-07
0, 0, 135, 1.219247280914715e-07
0, 0, 136, 1.220678456093083e-07
0, 0, 137, 1.222081635887662e-07
0, 0, 138, 1.224928212195664e-07
0, 0, 139, 1.229973918270844e-07
0, 0, 140, 1.248860286295894e-07
0, 0, 141, 1.250640480066068e-07
0, 0, 142, 1.252144841146219e-07
0, 0, 143, 1.250233765404118e-07
0, 0, 144, 1.263261708572827e-07
0, 0, 145, 1.265322140397984e-07
0, 0, 146, 1.272576781730095e-07
0, 0, 147, 1.285163619968444e-07
0, 0, 148, 1.289611049060113e-07
0, 0, 149, 1.294936424756088e-07
0, 0, 150, 1.303782681816301e-07
0, 0, 151, 1.315132749368786e-07
0, 0, 152, 1.321165825629578e-07
0, 0, 153, 1.327968988107386e-07
0, 0, 154, 1.340717403763847e-07
0, 0, 155, 1.352570961898891e-07
0, 0, 156, 1.355873138209063e-07
0, 0, 157, 1.362911490332408e-07
0, 0, 158, 1.375673832626489e-07
0, 0, 159, 1.374015567989773e-07
0, 0, 160, 1.382356344947766e-07
0, 0, 161, 1.396538067410802e-07
0, 0, 162, 1.404634843993335e-07
0, 0, 163, 1.412350485452407e-07
0, 0, 164, 1.432620706509624e-07
0, 0, 165, 1.44187850992239e-07
0, 0, 166, 1.452069398055755e-07
0, 0, 167, 1.46485902519089e-07
0, 0, 168, 1.47517795312524e-07
0, 0, 169, 1.486561842511946e-07
0, 0, 170, 1.505517701616554e-07
0, 0, 171, 1.523699069139184e-07
0, 0, 172, 1.541897916013113e-07
0, 0, 173, 1.555166306843603e-07
0, 0, 174, 1.576339201392329e-07
0, 0, 175, 1.586934246233795e-07
0, 0, 176, 1.605612993671457e-07
0, 0, 177, 1.636162352269821e-07
0, 0, 178, 1.65621642622682e-07
0, 0, 179, 1.681908088357886e-07
0, 0, 180, 1.702770475731086e-07
0, 0, 181, 1.735839418870455e-07
0, 0, 182, 1.764526444958392e-07
0, 0, 183, 1.798048572254629e-07
0, 0, 184, 1.828879163667807e-07
0, 0, 185, 1.86787730172e-07
0, 0, 186, 1.910028686324949e-07
0, 0, 187, 1.967298857152855e-07
0, 0, 188, 2.012270812201677e-07
0, 0, 189, 2.074758498338269e-07
0, 0, 190, 2.127868299339752e-07
0, 0, 191, 2.199475943598372e-07
0, 0, 192, 2.274942403346358e-07
0, 0, 193, 2.366136868658941e-07
0, 0, 194, 2.475127587331372e-07
0, 0, 195, 2.608236684409349e-07
0, 0, 196, 2.766575164514506e-07
0, 0, 197, 2.953909756797657e-07
0, 0, 198, 3.199887999016937e-07
0, 0, 199, 3.474870595709945e-07
0, 0, 200, 3.744264063243463e-07
0, 0, 201, 3.927069656128879e-07
0, 0, 202, 3.855028012367256e-07
0, 0, 203, 3.376806603228033e-07
0, 0, 204, 2.607303599688748e-07
0, 0, 205, 1.711129300474568e-07
0, 0, 206, 9.329578176675568e-08
0, 0, 207, 4.200696324119235e-08
0, 0, 208, 1.54979478139694e-08
0, 0, 209, 4.835385425394634e-09
0, 0, 210, 1.551816786182769e-09
0, 0, 211, 1.003761518347801e-09
0, 0, 212, 8.856914646138137e-10
0, 0, 213, 6.058948898157723e-10
0, 0, 214, 6.878354552597443e-10
0, 0, 215, 6.277807718113593e-10
0, 0, 216, 6.292515952743827e-10
0, 0, 217, 7.31428584366256e-10
0, 0, 218, 7.817756997319236e-10
0, 0, 219, 7.747563701698823e-10
0, 0, 220, 8.817476193634377e-10
0, 0, 221, 7.542053093168022e-10
0, 0, 222, 7.059428597244732e-10
0, 0, 223, 8.112763238976584e-10
0, 0, 224, 7.760989073624103e-10
0, 0, 225, 6.706555311097873e-10
0, 0, 226, 7.019284042897311e-10
0, 0, 227, 7.720733496974219e-10
0, 0, 228, 6.466660540382918e-10
0, 0, 229, 6.719244605157826e-10
0, 0, 230, 7.7531847608725e-10
0, 0, 231, 6.218828785264918e-10
0, 0, 232, 6.784123263159358e-10
0, 0, 233, 8.286694663794947e-10
0, 0, 234, 6.503500515897542e-10
0, 0, 235, 7.555590042507276e-10
0, 0, 236, 6.485244008480606e-10
0, 0, 237, 7.419813652376206e-10
0, 0, 238, 5.983077921989377e-10
0, 0, 239, 6.061430801729273e-10
0, 0, 240, 7.662328549429276e-10
0, 0, 241, 6.039055366890977e-10
0, 0, 242, 6.0043725547132e-10
0, 0, 243, 6.033162858187779e-10
0, 0, 244, 5.53877887998766e-10
0, 0, 245, 7.050527939256312e-10
0, 0, 246, 5.742009645537394e-10
0, 0, 247, 7.247440425572904e-10
0, 0, 248, 5.594771312900093e-10
0, 0, 249, 5.986569018290311e-10
0, 0, 250, 4.836650524531194e-10
0, 0, 251, 4.946102416525378e-10
0, 0, 252, 6.091829818366534e-10
0, 0, 253, 6.586098333372092e-10
0, 0, 254, 7.280355762695478e-10
0, 0, 255, 7.234440824177568e-10
0, 0, 256, 4.880537085583114e-10
0, 0, 257, 6.176379407918375e-10
0, 0, 258, 5.295460181464762e-10
0, 0, 259, 4.931638430960561e-10
0, 0, 260, 6.022027321250789e-10
0, 0, 261, 5.696903504492923e-10
0, 0, 262, 4.474060288917059e-10
0, 0, 263, 5.789081436446963e-10
0, 0, 264, 4.068021475234218e-10
0, 0, 265, 4.686764309980163e-10
0, 0, 266, 4.803443753864656e-10
0, 0, 267, 5.371107447693646e-10
0, 0, 268, 5.294460425631087e-10
0, 0, 269, 3.551467175899603e-10
0, 0, 270, 4.795903119081402e-10
0, 0, 271, 5.86749704378775e-10
0, 0, 272, 4.542976272947641e-10
0, 0, 273, 4.297451283719056e-10
0, 0, 274, 3.973663065259814e-10
0, 0, 275, 4.608111392467862e-10
0, 0, 276, 5.666145330707195e-10
0, 0, 277, 4.048914536980419e-10
0, 0, 278, 4.955548749130401e-10
0, 0, 279, 4.714199031141675e-10
0, 0, 280, 3.751885191416449e-10
0, 0, 281, 4.691598221029381e-10
0, 0, 282, 3.175662233179111e-10
0, 0, 283, 4.435250500200993e-10
0, 0, 284, 4.091450511722883e-10
0, 0, 285, 6.287452225528511e-10
0, 0, 286, 3.737810061466007e-10
0, 0, 287, 3.563624950686517e-10
0, 0, 288, 4.17989615142389e-10
0, 0, 289, 2.912502183871624e-10
0, 0, 290, 3.747996635272699e-10
0, 0, 291, 4.792131136355238e-10
0, 0, 292, 4.119531660240483e-10
0, 0, 293, 4.88890150585064e-10
0, 0, 294, 5.132945180008619e-10
0, 0, 295, 4.049399426886424e-10
0, 0, 296, 4.150066401642505e-10
0, 0, 297, 3.949815197135109e-10
0, 0, 298, 3.189504216294381e-10
0, 0, 299, 4.228791761207162e-10
0, 0, 300, 4.357431360180186e-10
