# TOPAS Version: 3.9
# Parameter File: pristine_temp.txt
# Results for scorer: DosePhantom
# Scored in component: Phantom
# X in 1 bin  of 30 cm
# Y in 1 bin  of 30 cm
# Z in 301 bins of 0.0996678 cm
# DoseToMedium ( Gy ) : Sum   
0, 0, 0, 8.234213311197891e-08
0, 0, 1, 8.481782742819632e-08
0, 0, 2, 8.541567098063751e-08
0, 0, 3, 8.608906654217208e-08
0, 0, 4, 8.582878052720844e-08
0, 0, 5, 8.69811671577736e-08
0, 0, 6, 8.782271976315315e-08
0, 0, 7, 8.766012626892916e-08
0, 0, 8, 8.800760298299792e-08
0, 0, 9, 8.871587908743095e-08
0, 0, 10, 8.938989282114562e-08
0, 0, 11, 8.894766523326325e-08
0, 0, 12, 8.89883793320223e-08
0, 0, 13, 8.912624593904184e-08
0, 0, 14, 8.940912721300265e-08
0, 0, 15, 9.021592006774881e-08
0, 0, 16, 9.007617762790687e-08
0, 0, 17, 9.030734560155906e-08
0, 0, 18, 9.061173500413133e-08
0, 0, 19, 9.106130960390146e-08
0, 0, 20, 9.164019587615257e-08
0, 0, 21, 9.268880063473262e-08
0, 0, 22, 9.201230710687014e-08
0, 0, 23, 9.252762112055279e-08
0, 0, 24, 9.303104775426618e-08
0, 0, 25, 9.25044929545038e-08
0, 0, 26, 9.322462801719666e-08
0, 0, 27, 9.342608109363937e-08
0, 0, 28, 9.326416261501436e-08
0, 0, 29, 9.424829983117888e-08
0, 0, 30, 9.426926084188381e-08
0, 0, 31, 9.488456242934262e-08
0, 0, 32, 9.436102743620722e-08
0, 0, 33, 9.466415207270984e-08
0, 0, 34, 9.477651019551558e-08
0, 0, 35, 9.569190240199532e-08
0, 0, 36, 9.506486975396911e-08
0, 0, 37, 9.578464243986673e-08
0, 0, 38, 9.51859675524247e-08
0, 0, 39, 9.588826088702262e-08
0, 0, 40, 9.587780880337959e-08
0, 0, 41, 9.672311307440395e-08
0, 0, 42, 9.702973358116651e-08
0, 0, 43, 9.561794911405741e-08
0, 0, 44, 9.618969443181413e-08
0, 0, 45, 9.692337243905058e-08
0, 0, 46, 9.721613025703846e-08
0, 0, 47, 9.756814733918873e-08
0, 0, 48, 9.74995586489058e-08
0, 0, 49, 9.733835071301655e-08
0, 0, 50, 9.749868468134082e-08
0, 0, 51, 9.810958090383792e-08
0, 0, 52, 9.832803726794737e-08
0, 0, 53, 9.835234493493772e-08
0, 0, 54, 9.830634439822461e-08
0, 0, 55, 9.840180581477398e-08
0, 0, 56, 9.876822559817811e-08
0, 0, 57, 9.8881798749062e-08
0, 0, 58, 9.880592699573754e-08
0, 0, 59, 9.915563481399658e-08
0, 0, 60, 1.003155105649967e-07
0, 0, 61, 9.865495087524323e-08
0, 0, 62, 9.935188671761352e-08
0, 0, 63, 9.988701776819653e-08
0, 0, 64, 1.00412918868642e-07
0, 0, 65, 1.003624774398304e-07
0, 0, 66, 9.974836956416766e-08
0, 0, 67, 9.968324832243525e-08
0, 0, 68, 1.007342476100348e-07
0, 0, 69, 1.004355212330665e-07
0, 0, 70, 1.011621932889284e-07
0, 0, 71, 1.015804542703336e-07
0, 0, 72, 1.023589817350512e-07
0, 0, 73, 1.018014827991465e-07
0, 0, 74, 1.018350275217017e-07
0, 0, 75, 1.022605005118749e-07
0, 0, 76, 1.026612608256983e-07
0, 0, 77, 1.026031029027763e-07
0, 0, 78, 1.025087428274674e-07
0, 0, 79, 1.037750436694296e-07
0, 0, 80, 1.034337628880166e-07
0, 0, 81, 1.035710468499929e-07
0, 0, 82, 1.041976318560955e-07
0, 0, 83, 1.042119848193579e-07
0, 0, 84, 1.041853678884763e-07
0, 0, 85, 1.042017174768262e-07
0, 0, 86, 1.037734378428468e-07
0, 0, 87, 1.046567490448069e-07
0, 0, 88, 1.055085689927182e-07
0, 0, 89, 1.056079454997416e-07
0, 0, 90, 1.051177633826228e-07
0, 0, 91, 1.054111393727908e-07
0, 0, 92, 1.055905372027155e-07
0, 0, 93, 1.056849328051612e-07
0, 0, 94, 1.064212113988106e-07
0, 0, 95, 1.061562215909362e-07
0, 0, 96, 1.066263521920519e-07
0, 0, 97, 1.068816715132925e-07
0, 0, 98, 1.070143866854778e-07
0, 0, 99, 1.066312051989371e-07
0, 0, 100, 1.068966071215982e-07
0, 0, 101, 1.075188862387222e-07
0, 0, 102, 1.077323403819719e-07
0, 0, 103, 1.076661533261358e-07
0, 0, 104, 1.08579428115263e-07
0, 0, 105, 1.083457448203262e-07
0, 0, 106, 1.081975895544929e-07
0, 0, 107, 1.090787762336731e-07
0, 0, 108, 1.094063293294312e-07
0, 0, 109, 1.101335129760628e-07
0, 0, 110, 1.098239152952374e-07
0, 0, 111, 1.095985950883005e-07
0, 0, 112, 1.104151721165181e-07
0, 0, 113, 1.103590321349657e-07
0, 0, 114, 1.110291165673516e-07
0, 0, 115, 1.110022722627946e-07
0, 0, 116, 1.114417855774263e-07
0, 0, 117, 1.116493990593881e-07
0, 0, 118, 1.118530974508758e-07
0, 0, 119, 1.118987142945116e-07
0, 0, 120, 1.117076067203016e-07
0, 0, 121, 1.124637805105522e-07
0, 0, 122, 1.12562887011336e-07
0, 0, 123, 1.126516835370239e-07
0, 0, 124, 1.127857345295524e-07
0, 0, 125, 1.131999454173638e-07
0, 0, 126, 1.135114331418663e-07
0, 0, 127, 1.141116285907628e-07
0, 0, 128, 1.13743347185391e-07
0, 0, 129, 1.142901879802594e-07
0, 0, 130, 1.150515132053442e-07
0, 0, 131, 1.151319324321776e-07
0, 0, 132, 1.15852515136794e-07
0, 0, 133, 1.160929059551563e-07
0, 0, 134, 1.167481258335101e-07
0, 0, 135, 1.173932844267256e-07
0, 0, 136, 1.173820720623553e-07
0, 0, 137, 1.173197006210103e-07
0, 0, 138, 1.175495185634645e-07
0, 0, 139, 1.178789048594808e-07
0, 0, 140, 1.188604983326513e-07
0, 0, 141, 1.18921988701004e-07
0, 0, 142, 1.189374501109342e-07
0, 0, 143, 1.195105312490341e-07
0, 0, 144, 1.190712950460693e-07
0, 0, 145, 1.207532136504597e-07
0, 0, 146, 1.208904620852991e-07
0, 0, 147, 1.219282808051503e-07
0, 0, 148, 1.221182373001284e-07
0, 0, 149, 1.226887178518155e-07
0, 0, 150, 1.229149120263173e-07
0, 0, 151, 1.234463837818112e-07
0, 0, 152, 1.244574150405242e-07
0, 0, 153, 1.243856360133577e-07
0, 0, 154, 1.257210016092358e-07
0, 0, 155, 1.25316319099511e-07
0, 0, 156, 1.264357081254275e-07
0, 0, 157, 1.272113081540738e-07
0, 0, 158, 1.274729868327995e-07
0, 0, 159, 1.287673541128243e-07
0, 0, 160, 1.287955342377245e-07
0, 0, 161, 1.291564615257812e-07
0, 0, 162, 1.300774101764546e-07
0, 0, 163, 1.308362698182464e-07
0, 0, 164, 1.317419133783915e-07
0, 0, 165, 1.327680507756668e-07
0, 0, 166, 1.339946038569906e-07
0, 0, 167, 1.348429208292146e-07
0, 0, 168, 1.355397927227386e-07
0, 0, 169, 1.364828392524942e-07
0, 0, 170, 1.373565083895301e-07
0, 0, 171, 1.38804850280394e-07
0, 0, 172, 1.399950377845016e-07
0, 0, 173, 1.398024238596918e-07
0, 0, 174, 1.411867032174996e-07
0, 0, 175, 1.428118565627301e-07
0, 0, 176, 1.435766705526476e-07
0, 0, 177, 1.44456450357211e-07
0, 0, 178, 1.459955285554315e-07
0, 0, 179, 1.476386302101673e-07
0, 0, 180, 1.487587297788195e-07
0, 0, 181, 1.503896385202097e-07
0, 0, 182, 1.519304078101413e-07
0, 0, 183, 1.538026452863051e-07
0, 0, 184, 1.552972861418311e-07
0, 0, 185, 1.574697279238535e-07
0, 0, 186, 1.593106304653702e-07
0, 0, 187, 1.613649658338545e-07
0, 0, 188, 1.635765158880531e-07
0, 0, 189, 1.657999035842295e-07
0, 0, 190, 1.687455295495965e-07
0, 0, 191, 1.715229842602639e-07
0, 0, 192, 1.745350601822793e-07
0, 0, 193, 1.775609916876419e-07
0, 0, 194, 1.809803649166497e-07
0, 0, 195, 1.846314603426435e-07
0, 0, 196, 1.888478493583534e-07
0, 0, 197, 1.934405986503407e-07
0, 0, 198, 1.981291291031084e-07
0, 0, 199, 2.045395888217172e-07
0, 0, 200, 2.106308727434225e-07
0, 0, 201, 2.165585186730823e-07
0, 0, 202, 2.255331139622285e-07
0, 0, 203, 2.339970563980387e-07
0, 0, 204, 2.458041876707284e-07
0, 0, 205, 2.584103526714898e-07
0, 0, 206, 2.744614846506011e-07
0, 0, 207, 2.937144927273039e-07
0, 0, 208, 3.162768962283735e-07
0, 0, 209, 3.431913455642643e-07
0, 0, 210, 3.673914079627139e-07
0, 0, 211, 3.793211362790316e-07
0, 0, 212, 3.690529695177247e-07
0, 0, 213, 3.299786612842581e-07
0, 0, 214, 2.556876381731854e-07
0, 0, 215, 1.717419593205705e-07
0, 0, 216, 9.769122755187709e-08
0, 0, 217, 4.650143736739665e-08
0, 0, 218, 1.815279482286769e-08
0, 0, 219, 6.178906275522422e-09
0, 0, 220, 2.203363269615011e-09
0, 0, 221, 1.024490270395972e-09
0, 0, 222, 7.55090046045126e-10
0, 0, 223, 8.305700571753505e-10
0, 0, 224, 9.984149063058112e-10
0, 0, 225, 8.334367640472351e-10
0, 0, 226, 9.042422366434266e-10
0, 0, 227, 8.683521124375204e-10
0, 0, 228, 8.923884964318063e-10
0, 0, 229, 7.558657033612803e-10
0, 0, 230, 6.007697672671952e-10
0, 0, 231, 7.490287834421849e-10
0, 0, 232, 7.044483329998741e-10
0, 0, 233, 6.288746745575224e-10
0, 0, 234, 6.175224220861253e-10
0, 0, 235, 7.94214416455219e-10
0, 0, 236, 7.594359030527187e-10
0, 0, 237, 8.528401873597602e-10
0, 0, 238, 8.395202311106686e-10
0, 0, 239, 7.447612526689795e-10
0, 0, 240, 7.016224268241444e-10
0, 0, 241, 6.384259787495239e-10
0, 0, 242, 6.240177263805435e-10
0, 0, 243, 6.107070960048588e-10
0, 0, 244, 7.207193175595705e-10
0, 0, 245, 7.996625583928108e-10
0, 0, 246, 6.724551471215534e-10
0, 0, 247, 6.366239202471036e-10
0, 0, 248, 6.6942934529024e-10
0, 0, 249, 6.012755293660632e-10
0, 0, 250, 6.281136166741419e-10
0, 0, 251, 5.908647460195482e-10
0, 0, 252, 7.676662638900211e-10
0, 0, 253, 5.21824361499057e-10
0, 0, 254, 6.417295028704473e-10
0, 0, 255, 5.956519166794294e-10
0, 0, 256, 6.037101374367637e-10
0, 0, 257, 6.305062028033603e-10
0, 0, 258, 5.983616935267833e-10
0, 0, 259, 3.686683180958994e-10
0, 0, 260, 6.235599814274906e-10
0, 0, 261, 6.384321959984618e-10
0, 0, 262, 5.468452912715804e-10
0, 0, 263, 6.370095562147071e-10
0, 0, 264, 6.679793940200796e-10
0, 0, 265, 5.163175442746137e-10
0, 0, 266, 4.448853785365969e-10
0, 0, 267, 3.41886241539413e-10
0, 0, 268, 5.141033709854526e-10
0, 0, 269, 6.799575347216091e-10
0, 0, 270, 5.281128867551388e-10
0, 0, 271, 5.533453140138533e-10
0, 0, 272, 4.517637652856621e-10
0, 0, 273, 4.523182661753111e-10
0, 0, 274, 5.88298187942371e-10
0, 0, 275, 6.063103907827383e-10
0, 0, 276, 5.717323281473341e-10
0, 0, 277, 6.361864923754013e-10
0, 0, 278, 5.013507942130957e-10
0, 0, 279, 6.515560868614045e-10
0, 0, 280, 4.983327639429547e-10
0, 0, 281, 5.007447789751041e-10
0, 0, 282, 4.725878577360731e-10
0, 0, 283, 3.356077915572797e-10
0, 0, 284, 4.563548705593945e-10
0, 0, 285, 4.085707883128009e-10
0, 0, 286, 4.897623973043608e-10
0, 0, 287, 5.023895743860862e-10
0, 0, 288, 4.304916145780879e-10
0, 0, 289, 4.602555836452638e-10
0, 0, 290, 4.484506099800001e-10
0, 0, 291, 3.70313585351667e-10
0, 0, 292, 3.851920726827274e-10
0, 0, 293, 5.22972720684578e-10
0, 0, 294, 5.948628256646771e-10
0, 0, 295, 4.465386949092931e-10
0, 0, 296, 4.622806859533313e-10
0, 0, 297, 5.004660019736207e-10
0, 0, 298, 4.23132362481482e-10
0, 0, 299, 4.87216100797383e-10
0, 0, 300, 5.640979905408017e-10
