# TOPAS Version: 3.9
# Parameter File: pristine_temp.txt
# Results for scorer: DosePhantom
# Scored in component: Phantom
# X in 1 bin  of 30 cm
# Y in 1 bin  of 30 cm
# Z in 301 bins of 0.0996678 cm
# DoseToMedium ( Gy ) : Sum   
0, 0, 0, 8.58271107517794e-08
0, 0, 1, 8.836806131284902e-08
0, 0, 2, 8.807224105567002e-08
0, 0, 3, 8.85190090116339e-08
0, 0, 4, 8.937549722531912e-08
0, 0, 5, 9.051601779219709e-08
0, 0, 6, 9.144203261257644e-08
0, 0, 7, 9.144370949343283e-08
0, 0, 8, 9.180594418012333e-08
0, 0, 9, 9.244795506901937e-08
0, 0, 10, 9.251468924276196e-08
0, 0, 11, 9.245464838159023e-08
0, 0, 12, 9.270461021060328e-08
0, 0, 13, 9.328034877853497e-08
0, 0, 14, 9.381734145108567e-08
0, 0, 15, 9.366638664687343e-08
0, 0, 16, 9.410665313680511e-08
0, 0, 17, 9.433321679352957e-08
0, 0, 18, 9.418211988077019e-08
0, 0, 19, 9.480205420686616e-08
0, 0, 20, 9.605199835505118e-08
0, 0, 21, 9.572141124181144e-08
0, 0, 22, 9.573265913331852e-08
0, 0, 23, 9.580258364394467e-08
0, 0, 24, 9.605404471813017e-08
0, 0, 25, 9.633136954789734e-08
0, 0, 26, 9.689528468470598e-08
0, 0, 27, 9.698790393031231e-08
0, 0, 28, 9.65888204973453e-08
0, 0, 29, 9.672134382299191e-08
0, 0, 30, 9.742626616571215e-08
0, 0, 31, 9.848488247143905e-08
0, 0, 32, 9.856816518549749e-08
0, 0, 33, 9.877815898562403e-08
0, 0, 34, 9.868311678928876e-08
0, 0, 35, 9.928953659255058e-08
0, 0, 36, 9.979655857250691e-08
0, 0, 37, 1.002873730726606e-07
0, 0, 38, 9.969471648219042e-08
0, 0, 39, 9.99470017859494e-08
0, 0, 40, 1.003979619440543e-07
0, 0, 41, 1.010161057024561e-07
0, 0, 42, 1.013951234085653e-07
0, 0, 43, 1.013300874319611e-07
0, 0, 44, 1.014007366961778e-07
0, 0, 45, 1.016991078017782e-07
0, 0, 46, 1.01183147194206e-07
0, 0, 47, 1.017351465293359e-07
0, 0, 48, 1.021193867245529e-07
0, 0, 49, 1.017757043086931e-07
0, 0, 50, 1.020383066929753e-07
0, 0, 51, 1.02683728187003e-07
0, 0, 52, 1.025761591222363e-07
0, 0, 53, 1.024786300263258e-07
0, 0, 54, 1.035332672927325e-07
0, 0, 55, 1.034295422641662e-07
0, 0, 56, 1.035716294950362e-07
0, 0, 57, 1.030857248451866e-07
0, 0, 58, 1.041207013940948e-07
0, 0, 59, 1.04158935698706e-07
0, 0, 60, 1.053362623792964e-07
0, 0, 61, 1.043467534600495e-07
0, 0, 62, 1.053082883117895e-07
0, 0, 63, 1.056428544643495e-07
0, 0, 64, 1.069116919438784e-07
0, 0, 65, 1.059990921703502e-07
0, 0, 66, 1.062927950101766e-07
0, 0, 67, 1.062233536686108e-07
0, 0, 68, 1.066430215246328e-07
0, 0, 69, 1.065761523477704e-07
0, 0, 70, 1.068348183252965e-07
0, 0, 71, 1.073996784839437e-07
0, 0, 72, 1.078026272693933e-07
0, 0, 73, 1.081197993357819e-07
0, 0, 74, 1.086914807046924e-07
0, 0, 75, 1.0825237239942e-07
0, 0, 76, 1.083603891061102e-07
0, 0, 77, 1.087641834374153e-07
0, 0, 78, 1.087265530941295e-07
0, 0, 79, 1.090156800387376e-07
0, 0, 80, 1.092783890044302e-07
0, 0, 81, 1.098984299119365e-07
0, 0, 82, 1.093757120429473e-07
0, 0, 83, 1.103918592093578e-07
0, 0, 84, 1.107846046011218e-07
0, 0, 85, 1.105420111002786e-07
0, 0, 86, 1.100621958016745e-07
0, 0, 87, 1.10768255012772e-07
0, 0, 88, 1.107908786934786e-07
0, 0, 89, 1.116968562087095e-07
0, 0, 90, 1.108861980014808e-07
0, 0, 91, 1.121002526360826e-07
0, 0, 92, 1.124705590882513e-07
0, 0, 93, 1.124521418205404e-07
0, 0, 94, 1.131120939135144e-07
0, 0, 95, 1.132676246129449e-07
0, 0, 96, 1.134150267034784e-07
0, 0, 97, 1.140731953341856e-07
0, 0, 98, 1.14121725403038e-07
0, 0, 99, 1.141795564763015e-07
0, 0, 100, 1.149284329926559e-07
0, 0, 101, 1.153262161324164e-07
0, 0, 102, 1.159311509013605e-07
0, 0, 103, 1.162161566981013e-07
0, 0, 104, 1.175552242216327e-07
0, 0, 105, 1.172986969777412e-07
0, 0, 106, 1.176525614710044e-07
0, 0, 107, 1.184416262844934e-07
0, 0, 108, 1.186105436090656e-07
0, 0, 109, 1.185754641142012e-07
0, 0, 110, 1.184873141824028e-07
0, 0, 111, 1.189404557067064e-07
0, 0, 112, 1.193040333191675e-07
0, 0, 113, 1.196802514868978e-07
0, 0, 114, 1.198882415565095e-07
0, 0, 115, 1.211230795661322e-07
0, 0, 116, 1.209449180805677e-07
0, 0, 117, 1.214510376712497e-07
0, 0, 118, 1.217701424138795e-07
0, 0, 119, 1.220099079546344e-07
0, 0, 120, 1.226202925863618e-07
0, 0, 121, 1.231342707797012e-07
0, 0, 122, 1.233746473872088e-07
0, 0, 123, 1.241045168853816e-07
0, 0, 124, 1.242150347025017e-07
0, 0, 125, 1.24582271610052e-07
0, 0, 126, 1.25705525988451e-07
0, 0, 127, 1.253425807590247e-07
0, 0, 128, 1.269596054953581e-07
0, 0, 129, 1.271632754651364e-07
0, 0, 130, 1.27331503563255e-07
0, 0, 131, 1.285534949602152e-07
0, 0, 132, 1.28838323121272e-07
0, 0, 133, 1.292779359118867e-07
0, 0, 134, 1.301152536825612e-07
0, 0, 135, 1.299097931450888e-07
0, 0, 136, 1.309975914409733e-07
0, 0, 137, 1.313258053414756e-07
0, 0, 138, 1.326834819792566e-07
0, 0, 139, 1.337875517037901e-07
0, 0, 140, 1.342991708952468e-07
0, 0, 141, 1.355773235900415e-07
0, 0, 142, 1.362246138114642e-07
0, 0, 143, 1.370780466913857e-07
0, 0, 144, 1.373536093751682e-07
0, 0, 145, 1.386022461247194e-07
0, 0, 146, 1.394550821487428e-07
0, 0, 147, 1.403586793458089e-07
0, 0, 148, 1.420458204393071e-07
0, 0, 149, 1.424575941655348e-07
0, 0, 150, 1.439776724510011e-07
0, 0, 151, 1.44957127190537e-07
0, 0, 152, 1.46552764590524e-07
0, 0, 153, 1.47674271033793e-07
0, 0, 154, 1.489517558184161e-07
0, 0, 155, 1.501611279763893e-07
0, 0, 156, 1.520795080978132e-07
0, 0, 157, 1.527851338778419e-07
0, 0, 158, 1.544392773666914e-07
0, 0, 159, 1.558186113470583e-07
0, 0, 160, 1.571191887705936e-07
0, 0, 161, 1.592555065599299e-07
0, 0, 162, 1.615140803323811e-07
0, 0, 163, 1.635660993315469e-07
0, 0, 164, 1.656661083870858e-07
0, 0, 165, 1.683319226231106e-07
0, 0, 166, 1.705591188283506e-07
0, 0, 167, 1.737033699100721e-07
0, 0, 168, 1.755121417090777e-07
0, 0, 169, 1.795275039739863e-07
0, 0, 170, 1.81943832444631e-07
0, 0, 171, 1.856868721006322e-07
0, 0, 172, 1.899492758639099e-07
0, 0, 173, 1.940018705681723e-07
0, 0, 174, 1.985461608455807e-07
0, 0, 175, 2.04291055183603e-07
0, 0, 176, 2.097581557336525e-07
0, 0, 177, 2.161739871553436e-07
0, 0, 178, 2.226726110166055e-07
0, 0, 179, 2.307877338125763e-07
0, 0, 180, 2.40267127082916e-07
0, 0, 181, 2.519662700706249e-07
0, 0, 182, 2.652296302585455e-07
0, 0, 183, 2.807666419357702e-07
0, 0, 184, 3.007417603839713e-07
0, 0, 185, 3.253964564464695e-07
0, 0, 186, 3.552796954409132e-07
0, 0, 187, 3.873306013701949e-07
0, 0, 188, 4.085592024694051e-07
0, 0, 189, 4.018982053821674e-07
0, 0, 190, 3.503364212065208e-07
0, 0, 191, 2.643811001235008e-07
0, 0, 192, 1.645995553190005e-07
0, 0, 193, 8.344068191945553e-08
0, 0, 194, 3.387093627793547e-08
0, 0, 195, 1.084483614022247e-08
0, 0, 196, 3.058894915142218e-09
0, 0, 197, 1.085070366890761e-09
0, 0, 198, 8.21361534342202e-10
0, 0, 199, 7.277863312005195e-10
0, 0, 200, 6.851339495739239e-10
0, 0, 201, 7.893941056380527e-10
0, 0, 202, 8.350545255275676e-10
0, 0, 203, 7.55241758021441e-10
0, 0, 204, 6.747113978633479e-10
0, 0, 205, 7.340029695157568e-10
0, 0, 206, 9.189211058746594e-10
0, 0, 207, 8.473692858501636e-10
0, 0, 208, 7.844506710874555e-10
0, 0, 209, 6.644159111779402e-10
0, 0, 210, 8.07289401993927e-10
0, 0, 211, 7.881825747624305e-10
0, 0, 212, 8.176667121162495e-10
0, 0, 213, 7.626471121291445e-10
0, 0, 214, 6.668118279762325e-10
0, 0, 215, 6.633710802894655e-10
0, 0, 216, 7.376870780895217e-10
0, 0, 217, 7.920049061027612e-10
0, 0, 218, 7.245274935563373e-10
0, 0, 219, 7.223475151363346e-10
0, 0, 220, 6.870103930189941e-10
0, 0, 221, 8.603874279700108e-10
0, 0, 222, 8.01084143464692e-10
0, 0, 223, 6.994035905982798e-10
0, 0, 224, 7.224846276798758e-10
0, 0, 225, 6.156020138092799e-10
0, 0, 226, 6.610827441022593e-10
0, 0, 227, 6.188096701720269e-10
0, 0, 228, 5.836416905324882e-10
0, 0, 229, 5.609919195848079e-10
0, 0, 230, 6.141907538115277e-10
0, 0, 231, 5.477969189371379e-10
0, 0, 232, 6.797309382022831e-10
0, 0, 233, 7.40284389344481e-10
0, 0, 234, 5.758817311907194e-10
0, 0, 235, 5.712945116975732e-10
0, 0, 236, 7.197160090122168e-10
0, 0, 237, 6.586354794890781e-10
0, 0, 238, 7.400252632905335e-10
0, 0, 239, 6.020745568768859e-10
0, 0, 240, 6.278126907233172e-10
0, 0, 241, 6.225515103430723e-10
0, 0, 242, 6.232557248075921e-10
0, 0, 243, 5.588658424926507e-10
0, 0, 244, 5.713708395305162e-10
0, 0, 245, 5.966151461755942e-10
0, 0, 246, 6.566938104413111e-10
0, 0, 247, 6.078913483698045e-10
0, 0, 248, 4.209722570536201e-10
0, 0, 249, 4.810091214224599e-10
0, 0, 250, 4.57792470598406e-10
0, 0, 251, 3.78652220689446e-10
0, 0, 252, 5.315168305486395e-10
0, 0, 253, 4.333946257428778e-10
0, 0, 254, 5.454534601767591e-10
0, 0, 255, 4.890946536662e-10
0, 0, 256, 4.321059343670441e-10
0, 0, 257, 4.840474687739516e-10
0, 0, 258, 3.734256237564182e-10
0, 0, 259, 5.863959318119782e-10
0, 0, 260, 4.215962579046106e-10
0, 0, 261, 3.799361381062738e-10
0, 0, 262, 4.671363851294075e-10
0, 0, 263, 4.28802826579755e-10
0, 0, 264, 3.785266544653609e-10
0, 0, 265, 5.425113691615024e-10
0, 0, 266, 4.774756146019854e-10
0, 0, 267, 4.532862141193306e-10
0, 0, 268, 3.430025152795224e-10
0, 0, 269, 3.827888006568969e-10
0, 0, 270, 4.327573854823186e-10
0, 0, 271, 4.412875065362698e-10
0, 0, 272, 5.023119697966649e-10
0, 0, 273, 4.400933784065586e-10
0, 0, 274, 4.799616815098773e-10
0, 0, 275, 5.293029903263857e-10
0, 0, 276, 3.6694114413649e-10
0, 0, 277, 4.862552582807211e-10
0, 0, 278, 3.601344777948157e-10
0, 0, 279, 3.519467495216588e-10
0, 0, 280, 3.96682714454144e-10
0, 0, 281, 4.298521261159038e-10
0, 0, 282, 3.932847103538251e-10
0, 0, 283, 3.493238476259819e-10
0, 0, 284, 4.300806100143717e-10
0, 0, 285, 3.165539774752091e-10
0, 0, 286, 3.348129828939506e-10
0, 0, 287, 3.618796928783752e-10
0, 0, 288, 4.24701857015819e-10
0, 0, 289, 2.996486947459687e-10
0, 0, 290, 3.052113839441262e-10
0, 0, 291, 3.841736095910875e-10
0, 0, 292, 4.58913101963887e-10
0, 0, 293, 2.681340427468371e-10
0, 0, 294, 3.139368487392602e-10
0, 0, 295, 3.092951728067561e-10
0, 0, 296, 3.54312135186774e-10
0, 0, 297, 3.479536658801408e-10
0, 0, 298, 2.711283142442511e-10
0, 0, 299, 2.982924462990866e-10
0, 0, 300, 3.533972836589072e-10
