# TOPAS Version: 3.9
# Parameter File: pristine_temp.txt
# Results for scorer: DosePhantom
# Scored in component: Phantom
# X in 1 bin  of 30 cm
# Y in 1 bin  of 30 cm
# Z in 301 bins of 0.0996678 cm
# DoseToMedium ( Gy ) : Sum   
0, 0, 0, 8.381478266983322e-08
0, 0, 1, 8.60360884757938e-08
0, 0, 2, 8.650015814737344e-08
0, 0, 3, 8.702870246679595e-08
0, 0, 4, 8.752412838930468e-08
0, 0, 5, 8.791938910235331e-08
0, 0, 6, 8.821456987107013e-08
0, 0, 7, 8.8694520172794e-08
0, 0, 8, 8.953254848620418e-08
0, 0, 9, 8.945734464305133e-08
0, 0, 10, 9.024805791568724e-08
0, 0, 11, 9.085846386369667e-08
0, 0, 12, 9.079344920337462e-08
0, 0, 13, 9.135646905633621e-08
0, 0, 14, 9.090445018955506e-08
0, 0, 15, 9.189249539076627e-08
0, 0, 16, 9.190595307018157e-08
0, 0, 17, 9.191853678203188e-08
0, 0, 18, 9.226137365203613e-08
0, 0, 19, 9.240808651611587e-08
0, 0, 20, 9.21228533456997e-08
0, 0, 21, 9.238734577365904e-08
0, 0, 22, 9.275549217591106e-08
0, 0, 23, 9.342004858581276e-08
0, 0, 24, 9.393145461444874e-08
0, 0, 25, 9.389081156996326e-08
0, 0, 26, 9.418417334927653e-08
0, 0, 27, 9.478976181753751e-08
0, 0, 28, 9.474381812424326e-08
0, 0, 29, 9.527476407811264e-08
0, 0, 30, 9.495386876778866e-08
0, 0, 31, 9.506867826303278e-08
0, 0, 32, 9.569645698093154e-08
0, 0, 33, 9.523490973606386e-08
0, 0, 34, 9.545105683628208e-08
0, 0, 35, 9.586037208464404e-08
0, 0, 36, 9.599482808653192e-08
0, 0, 37, 9.563204628193489e-08
0, 0, 38, 9.680724133431795e-08
0, 0, 39, 9.720422156078712e-08
0, 0, 40, 9.711793325095641e-08
0, 0, 41, 9.740821127479649e-08
0, 0, 42, 9.715196114257196e-08
0, 0, 43, 9.781777521311597e-08
0, 0, 44, 9.774235110171503e-08
0, 0, 45, 9.833265579572981e-08
0, 0, 46, 9.773206244290122e-08
0, 0, 47, 9.750059604130001e-08
0, 0, 48, 9.834357683757844e-08
0, 0, 49, 9.844593051866468e-08
0, 0, 50, 9.915930831994046e-08
0, 0, 51, 9.919766341681679e-08
0, 0, 52, 9.951880741709829e-08
0, 0, 53, 9.924200128352823e-08
0, 0, 54, 9.930285216341872e-08
0, 0, 55, 1.00519876866656e-07
0, 0, 56, 1.00373675593346e-07
0, 0, 57, 1.006781076284824e-07
0, 0, 58, 1.012048045367919e-07
0, 0, 59, 1.002961411700198e-07
0, 0, 60, 1.004668419568588e-07
0, 0, 61, 1.007275542974639e-07
0, 0, 62, 1.012506487541032e-07
0, 0, 63, 1.018743489566987e-07
0, 0, 64, 1.024322315856807e-07
0, 0, 65, 1.018434687694025e-07
0, 0, 66, 1.020433515463992e-07
0, 0, 67, 1.020422786268682e-07
0, 0, 68, 1.020260000927919e-07
0, 0, 69, 1.025655009811999e-07
0, 0, 70, 1.023951554657287e-07
0, 0, 71, 1.024217510803282e-07
0, 0, 72, 1.029793068596518e-07
0, 0, 73, 1.033004295436513e-07
0, 0, 74, 1.039924910628542e-07
0, 0, 75, 1.03140870066909e-07
0, 0, 76, 1.040847124045285e-07
0, 0, 77, 1.032048615456915e-07
0, 0, 78, 1.046345445843144e-07
0, 0, 79, 1.047444300183997e-07
0, 0, 80, 1.050464675245166e-07
0, 0, 81, 1.04342511519917e-07
0, 0, 82, 1.048720363883149e-07
0, 0, 83, 1.055759710766324e-07
0, 0, 84, 1.059316616647266e-07
0, 0, 85, 1.056065670468342e-07
0, 0, 86, 1.054770848440967e-07
0, 0, 87, 1.055058973520318e-07
0, 0, 88, 1.066609840449928e-07
0, 0, 89, 1.056930329923489e-07
0, 0, 90, 1.063532550915625e-07
0, 0, 91, 1.065478656414598e-07
0, 0, 92, 1.06802659161076e-07
0, 0, 93, 1.067792680942148e-07
0, 0, 94, 1.071309085887151e-07
0, 0, 95, 1.075568789588033e-07
0, 0, 96, 1.068280823801615e-07
0, 0, 97, 1.075370406056209e-07
0, 0, 98, 1.080375682249723e-07
0, 0, 99, 1.074648636745223e-07
0, 0, 100, 1.083248548638949e-07
0, 0, 101, 1.084235563553193e-07
0, 0, 102, 1.086354117774135e-07
0, 0, 103, 1.094155095415772e-07
0, 0, 104, 1.091555645871267e-07
0, 0, 105, 1.093252706141357e-07
0, 0, 106, 1.085443344095438e-07
0, 0, 107, 1.091932304575494e-07
0, 0, 108, 1.095333743705851e-07
0, 0, 109, 1.103795455037471e-07
0, 0, 110, 1.099654269864914e-07
0, 0, 111, 1.09845267104447e-07
0, 0, 112, 1.104322109313216e-07
0, 0, 113, 1.105743194784736e-07
0, 0, 114, 1.103833469073834e-07
0, 0, 115, 1.107072478134796e-07
0, 0, 116, 1.115419152597497e-07
0, 0, 117, 1.109400926679882e-07
0, 0, 118, 1.113686352027798e-07
0, 0, 119, 1.119412402772468e-07
0, 0, 120, 1.124742539104773e-07
0, 0, 121, 1.128465143551693e-07
0, 0, 122, 1.128442406184149e-07
0, 0, 123, 1.135883920255765e-07
0, 0, 124, 1.139013932061061e-07
0, 0, 125, 1.137705112341791e-07
0, 0, 126, 1.127667559330803e-07
0, 0, 127, 1.138665695066265e-07
0, 0, 128, 1.138757141916358e-07
0, 0, 129, 1.144066814617872e-07
0, 0, 130, 1.14341524692918e-07
0, 0, 131, 1.149590005411483e-07
0, 0, 132, 1.14614493895715e-07
0, 0, 133, 1.158196383244103e-07
0, 0, 134, 1.168263423778626e-07
0, 0, 135, 1.162953822131385e-07
0, 0, 136, 1.162328260306822e-07
0, 0, 137, 1.161569684882124e-07
0, 0, 138, 1.165866976293728e-07
0, 0, 139, 1.172946682004294e-07
0, 0, 140, 1.178842197191443e-07
0, 0, 141, 1.173779153873511e-07
0, 0, 142, 1.176597805851998e-07
0, 0, 143, 1.181495292712498e-07
0, 0, 144, 1.186885967285889e-07
0, 0, 145, 1.191455964999477e-07
0, 0, 146, 1.184839959478268e-07
0, 0, 147, 1.189913021448774e-07
0, 0, 148, 1.200826744707228e-07
0, 0, 149, 1.198279022673887e-07
0, 0, 150, 1.198065575636065e-07
0, 0, 151, 1.211410562973469e-07
0, 0, 152, 1.208255753226695e-07
0, 0, 153, 1.211914337773123e-07
0, 0, 154, 1.216209994936435e-07
0, 0, 155, 1.218804612790336e-07
0, 0, 156, 1.22819670878016e-07
0, 0, 157, 1.229770418831322e-07
0, 0, 158, 1.234871831456985e-07
0, 0, 159, 1.235687392409091e-07
0, 0, 160, 1.238337574704929e-07
0, 0, 161, 1.248808843001825e-07
0, 0, 162, 1.252027885811913e-07
0, 0, 163, 1.251692651749181e-07
0, 0, 164, 1.259087412108784e-07
0, 0, 165, 1.267143971972473e-07
0, 0, 166, 1.267140845584436e-07
0, 0, 167, 1.26612420103811e-07
0, 0, 168, 1.269266221015641e-07
0, 0, 169, 1.277120418308186e-07
0, 0, 170, 1.287759090473628e-07
0, 0, 171, 1.290065938519547e-07
0, 0, 172, 1.29695820305642e-07
0, 0, 173, 1.297244693887478e-07
0, 0, 174, 1.30289905087011e-07
0, 0, 175, 1.308328734239694e-07
0, 0, 176, 1.3104541096709e-07
0, 0, 177, 1.320273952387652e-07
0, 0, 178, 1.324724934193e-07
0, 0, 179, 1.332044945456801e-07
0, 0, 180, 1.338925699201354e-07
0, 0, 181, 1.347727618394856e-07
0, 0, 182, 1.348735025885617e-07
0, 0, 183, 1.35261743139381e-07
0, 0, 184, 1.358869923251405e-07
0, 0, 185, 1.368992030847949e-07
0, 0, 186, 1.375418037241616e-07
0, 0, 187, 1.384583754315827e-07
0, 0, 188, 1.394994484371637e-07
0, 0, 189, 1.399193365614337e-07
0, 0, 190, 1.407635750183545e-07
0, 0, 191, 1.415193935372372e-07
0, 0, 192, 1.432028255976547e-07
0, 0, 193, 1.433913325854519e-07
0, 0, 194, 1.443226693709221e-07
0, 0, 195, 1.457510308000565e-07
0, 0, 196, 1.458294605072297e-07
0, 0, 197, 1.474510469279267e-07
0, 0, 198, 1.48878910977146e-07
0, 0, 199, 1.498844994785031e-07
0, 0, 200, 1.506183195942867e-07
0, 0, 201, 1.521105446045112e-07
0, 0, 202, 1.530275710592832e-07
0, 0, 203, 1.550282746620724e-07
0, 0, 204, 1.558013167368699e-07
0, 0, 205, 1.575665322661735e-07
0, 0, 206, 1.595977607848909e-07
0, 0, 207, 1.608505613148736e-07
0, 0, 208, 1.618376188616821e-07
0, 0, 209, 1.64417301107278e-07
0, 0, 210, 1.660853001794749e-07
0, 0, 211, 1.675903291697978e-07
0, 0, 212, 1.701919245533645e-07
0, 0, 213, 1.719274820288774e-07
0, 0, 214, 1.739696955382897e-07
0, 0, 215, 1.763202419624577e-07
0, 0, 216, 1.782364336122555e-07
0, 0, 217, 1.815168246821486e-07
0, 0, 218, 1.847125901122126e-07
0, 0, 219, 1.878874371641359e-07
0, 0, 220, 1.906050925981617e-07
0, 0, 221, 1.944315926039053e-07
0, 0, 222, 1.980125290401702e-07
0, 0, 223, 2.030253654083936e-07
0, 0, 224, 2.077061935779057e-07
0, 0, 225, 2.124316438312235e-07
0, 0, 226, 2.177154101445922e-07
0, 0, 227, 2.238522114339503e-07
0, 0, 228, 2.310466413746326e-07
0, 0, 229, 2.384779236308532e-07
0, 0, 230, 2.47749085247051e-07
0, 0, 231, 2.574302300217823e-07
0, 0, 232, 2.690073017674877e-07
0, 0, 233, 2.833951668890222e-07
0, 0, 234, 3.001710524586088e-07
0, 0, 235, 3.212386161521863e-07
0, 0, 236, 3.458870310169004e-07
0, 0, 237, 3.709677969254699e-07
0, 0, 238, 3.926304543711012e-07
0, 0, 239, 4.011881458154676e-07
0, 0, 240, 3.880331860273145e-07
0, 0, 241, 3.478828034531034e-07
0, 0, 242, 2.835567443071341e-07
0, 0, 243, 2.062561037519117e-07
0, 0, 244, 1.355696070959311e-07
0, 0, 245, 7.817231306717076e-08
0, 0, 246, 3.840568041368897e-08
0, 0, 247, 1.675318017646532e-08
0, 0, 248, 6.347143255425181e-09
0, 0, 249, 2.378244712275546e-09
0, 0, 250, 1.486000100747731e-09
0, 0, 251, 9.351848184735445e-10
0, 0, 252, 9.023763403170904e-10
0, 0, 253, 9.32390387120563e-10
0, 0, 254, 9.767826547601999e-10
0, 0, 255, 8.853366928462947e-10
0, 0, 256, 8.143956065076452e-10
0, 0, 257, 8.915591598324113e-10
0, 0, 258, 9.166671310900654e-10
0, 0, 259, 9.182919424866043e-10
0, 0, 260, 8.734700185364375e-10
0, 0, 261, 8.175397026022324e-10
0, 0, 262, 7.877398733313612e-10
0, 0, 263, 7.597049656027366e-10
0, 0, 264, 7.503833110433789e-10
0, 0, 265, 7.655773237580377e-10
0, 0, 266, 8.14214085043119e-10
0, 0, 267, 8.849418420275867e-10
0, 0, 268, 7.600478024727408e-10
0, 0, 269, 7.349482133989227e-10
0, 0, 270, 7.168677318425409e-10
0, 0, 271, 7.132460733139112e-10
0, 0, 272, 7.829795145575247e-10
0, 0, 273, 8.44314396175605e-10
0, 0, 274, 9.460773275904444e-10
0, 0, 275, 7.926451717210625e-10
0, 0, 276, 6.888873915755767e-10
0, 0, 277, 7.623999209727117e-10
0, 0, 278, 6.268570662548711e-10
0, 0, 279, 6.873926428063726e-10
0, 0, 280, 7.3645572973291e-10
0, 0, 281, 6.188607959423109e-10
0, 0, 282, 7.496413489960219e-10
0, 0, 283, 5.968390226485099e-10
0, 0, 284, 5.680964587639892e-10
0, 0, 285, 4.882080850698856e-10
0, 0, 286, 6.155479459479807e-10
0, 0, 287, 6.934178231610133e-10
0, 0, 288, 6.301555943721837e-10
0, 0, 289, 6.137653718596425e-10
0, 0, 290, 6.507444583192523e-10
0, 0, 291, 5.656414225896356e-10
0, 0, 292, 5.565434779697398e-10
0, 0, 293, 6.048955780713072e-10
0, 0, 294, 6.165105093103307e-10
0, 0, 295, 7.334711726869614e-10
0, 0, 296, 6.020016152241681e-10
0, 0, 297, 5.640050648736405e-10
0, 0, 298, 4.620775151398249e-10
0, 0, 299, 5.622382004411008e-10
0, 0, 300, 5.369983901992725e-10
