# TOPAS Version: 3.9
# Parameter File: pristine_temp.txt
# Results for scorer: DosePhantom
# Scored in component: Phantom
# X in 1 bin  of 30 cm
# Y in 1 bin  of 30 cm
# Z in 301 bins of 0.0996678 cm
# DoseToMedium ( Gy ) : Sum   
0, 0, 0, 8.229362435940857e-08
0, 0, 1, 8.446146892993056e-08
0, 0, 2, 8.421331187946635e-08
0, 0, 3, 8.510699700536861e-08
0, 0, 4, 8.535126028164086e-08
0, 0, 5, 8.584787281051831e-08
0, 0, 6, 8.610440715983714e-08
0, 0, 7, 8.678852481125432e-08
0, 0, 8, 8.665155348808184e-08
0, 0, 9, 8.746039981133436e-08
0, 0, 10, 8.787453964487213e-08
0, 0, 11, 8.841640664059014e-08
0, 0, 12, 8.88488997929926e-08
0, 0, 13, 8.841136178716624e-08
0, 0, 14, 8.883149149596647e-08
0, 0, 15, 8.908259729878409e-08
0, 0, 16, 8.868612866308467e-08
0, 0, 17, 8.935094797379861e-08
0, 0, 18, 8.97268250810157e-08
0, 0, 19, 8.995474587436547e-08
0, 0, 20, 8.992498834459184e-08
0, 0, 21, 9.003321110867546e-08
0, 0, 22, 9.027640857084407e-08
0, 0, 23, 9.053613325704646e-08
0, 0, 24, 9.207835205415904e-08
0, 0, 25, 9.174182480364834e-08
0, 0, 26, 9.237088249847147e-08
0, 0, 27, 9.212270413172519e-08
0, 0, 28, 9.252755006627922e-08
0, 0, 29, 9.305584569574421e-08
0, 0, 30, 9.240504539320682e-08
0, 0, 31, 9.31777321966365e-08
0, 0, 32, 9.261133726568005e-08
0, 0, 33, 9.224543617847303e-08
0, 0, 34, 9.254645050305044e-08
0, 0, 35, 9.255889921178095e-08
0, 0, 36, 9.298553038661339e-08
0, 0, 37, 9.366967645974e-08
0, 0, 38, 9.373505349685729e-08
0, 0, 39, 9.440959303219643e-08
0, 0, 40, 9.451814975136585e-08
0, 0, 41, 9.397597722227147e-08
0, 0, 42, 9.456545768671276e-08
0, 0, 43, 9.489130547990499e-08
0, 0, 44, 9.507503051509048e-08
0, 0, 45, 9.519909127675419e-08
0, 0, 46, 9.550780077915988e-08
0, 0, 47, 9.544384482751411e-08
0, 0, 48, 9.60627204449338e-08
0, 0, 49, 9.631826713984992e-08
0, 0, 50, 9.686071678061126e-08
0, 0, 51, 9.73965441630753e-08
0, 0, 52, 9.708571013788969e-08
0, 0, 53, 9.624437780075823e-08
0, 0, 54, 9.702164760483356e-08
0, 0, 55, 9.746199225446617e-08
0, 0, 56, 9.745773610347896e-08
0, 0, 57, 9.81610668304711e-08
0, 0, 58, 9.753718899219166e-08
0, 0, 59, 9.792197630531518e-08
0, 0, 60, 9.791215660470698e-08
0, 0, 61, 9.75285345816701e-08
0, 0, 62, 9.834437975086985e-08
0, 0, 63, 9.858403160478701e-08
0, 0, 64, 9.86767929589405e-08
0, 0, 65, 9.806323930661165e-08
0, 0, 66, 9.915481768985046e-08
0, 0, 67, 9.851830640172921e-08
0, 0, 68, 9.897327402086376e-08
0, 0, 69, 9.918613130821541e-08
0, 0, 70, 9.916177390323355e-08
0, 0, 71, 9.972108472311447e-08
0, 0, 72, 9.939552114701655e-08
0, 0, 73, 9.939612510834195e-08
0, 0, 74, 1.010199710549387e-07
0, 0, 75, 1.003654190867564e-07
0, 0, 76, 1.004123291181713e-07
0, 0, 77, 1.010177399507484e-07
0, 0, 78, 1.012016568324725e-07
0, 0, 79, 1.017748587628375e-07
0, 0, 80, 1.010059236250527e-07
0, 0, 81, 1.014824775324996e-07
0, 0, 82, 1.017554822624334e-07
0, 0, 83, 1.016152495481037e-07
0, 0, 84, 1.022139528572552e-07
0, 0, 85, 1.015734696352411e-07
0, 0, 86, 1.016060906522398e-07
0, 0, 87, 1.020707358634354e-07
0, 0, 88, 1.022936046979339e-07
0, 0, 89, 1.03209977453389e-07
0, 0, 90, 1.029342584502047e-07
0, 0, 91, 1.025980864710618e-07
0, 0, 92, 1.030887375463863e-07
0, 0, 93, 1.034558465562441e-07
0, 0, 94, 1.032541092627071e-07
0, 0, 95, 1.03644488547161e-07
0, 0, 96, 1.037924874935925e-07
0, 0, 97, 1.040334751678529e-07
0, 0, 98, 1.045371007535323e-07
0, 0, 99, 1.039139760905528e-07
0, 0, 100, 1.04334503703285e-07
0, 0, 101, 1.043001631728657e-07
0, 0, 102, 1.039998664964514e-07
0, 0, 103, 1.046157009909621e-07
0, 0, 104, 1.055003053807013e-07
0, 0, 105, 1.049043234502278e-07
0, 0, 106, 1.057001242088518e-07
0, 0, 107, 1.056007974398199e-07
0, 0, 108, 1.054088372143269e-07
0, 0, 109, 1.061183709794022e-07
0, 0, 110, 1.070105852818415e-07
0, 0, 111, 1.063438688220231e-07
0, 0, 112, 1.068050892172323e-07
0, 0, 113, 1.061402841173731e-07
0, 0, 114, 1.060533207919434e-07
0, 0, 115, 1.063532550915625e-07
0, 0, 116, 1.069910027240439e-07
0, 0, 117, 1.071245847583668e-07
0, 0, 118, 1.076420730328209e-07
0, 0, 119, 1.07656440206938e-07
0, 0, 120, 1.073978310728307e-07
0, 0, 121, 1.077574651731084e-07
0, 0, 122, 1.077378257718919e-07
0, 0, 123, 1.079530917991178e-07
0, 0, 124, 1.080246434526089e-07
0, 0, 125, 1.086965610852531e-07
0, 0, 126, 1.083912337662696e-07
0, 0, 127, 1.088806271809517e-07
0, 0, 128, 1.093160477694255e-07
0, 0, 129, 1.099454962627533e-07
0, 0, 130, 1.098152964118526e-07
0, 0, 131, 1.099374244972751e-07
0, 0, 132, 1.103065514485024e-07
0, 0, 133, 1.109335414639645e-07
0, 0, 134, 1.114705341365152e-07
0, 0, 135, 1.114212508923629e-07
0, 0, 136, 1.108239402469735e-07
0, 0, 137, 1.108556446638431e-07
0, 0, 138, 1.113553267373391e-07
0, 0, 139, 1.1209052530603e-07
0, 0, 140, 1.12080371650336e-07
0, 0, 141, 1.124728683521425e-07
0, 0, 142, 1.125499977661093e-07
0, 0, 143, 1.121238355494825e-07
0, 0, 144, 1.12235930771476e-07
0, 0, 145, 1.126751953961502e-07
0, 0, 146, 1.135710832045334e-07
0, 0, 147, 1.132553251181889e-07
0, 0, 148, 1.134723461859721e-07
0, 0, 149, 1.147343198226736e-07
0, 0, 150, 1.134183236217723e-07
0, 0, 151, 1.136240044274928e-07
0, 0, 152, 1.144066885672146e-07
0, 0, 153, 1.153486550720118e-07
0, 0, 154, 1.147192563166755e-07
0, 0, 155, 1.148491861613365e-07
0, 0, 156, 1.154952400383991e-07
0, 0, 157, 1.161274312266869e-07
0, 0, 158, 1.159596862976287e-07
0, 0, 159, 1.16647463244135e-07
0, 0, 160, 1.164264560316042e-07
0, 0, 161, 1.166692555898408e-07
0, 0, 162, 1.17824583867332e-07
0, 0, 163, 1.184152864652788e-07
0, 0, 164, 1.186913181072669e-07
0, 0, 165, 1.189942651080855e-07
0, 0, 166, 1.19573059009781e-07
0, 0, 167, 1.193865983850628e-07
0, 0, 168, 1.201337198608599e-07
0, 0, 169, 1.197785053363987e-07
0, 0, 170, 1.194753025401951e-07
0, 0, 171, 1.202768658004061e-07
0, 0, 172, 1.213974485381186e-07
0, 0, 173, 1.219757024273349e-07
0, 0, 174, 1.218168677041831e-07
0, 0, 175, 1.218128744540081e-07
0, 0, 176, 1.223244652237554e-07
0, 0, 177, 1.236621471889521e-07
0, 0, 178, 1.233361217600759e-07
0, 0, 179, 1.23878606927974e-07
0, 0, 180, 1.237385731656104e-07
0, 0, 181, 1.236611666399767e-07
0, 0, 182, 1.243589338173479e-07
0, 0, 183, 1.257381825325865e-07
0, 0, 184, 1.258962072370196e-07
0, 0, 185, 1.258674870996401e-07
0, 0, 186, 1.26656331644881e-07
0, 0, 187, 1.266872828864507e-07
0, 0, 188, 1.273453875683117e-07
0, 0, 189, 1.275462295780017e-07
0, 0, 190, 1.287287574314178e-07
0, 0, 191, 1.29343490584688e-07
0, 0, 192, 1.295284022262422e-07
0, 0, 193, 1.299068657090174e-07
0, 0, 194, 1.305385382011082e-07
0, 0, 195, 1.312673134634679e-07
0, 0, 196, 1.326225600450925e-07
0, 0, 197, 1.326969254478172e-07
0, 0, 198, 1.328840824044164e-07
0, 0, 199, 1.334334882585608e-07
0, 0, 200, 1.335718877726322e-07
0, 0, 201, 1.349001621520074e-07
0, 0, 202, 1.364602155717876e-07
0, 0, 203, 1.360265713401532e-07
0, 0, 204, 1.37171937808489e-07
0, 0, 205, 1.376980378609005e-07
0, 0, 206, 1.386246140100411e-07
0, 0, 207, 1.39160476919642e-07
0, 0, 208, 1.405309575375213e-07
0, 0, 209, 1.413062449273639e-07
0, 0, 210, 1.423250637344609e-07
0, 0, 211, 1.428540628012342e-07
0, 0, 212, 1.443001735879079e-07
0, 0, 213, 1.450164859306824e-07
0, 0, 214, 1.45839123888436e-07
0, 0, 215, 1.470780688350715e-07
0, 0, 216, 1.479311038110609e-07
0, 0, 217, 1.498814867773035e-07
0, 0, 218, 1.503003232983247e-07
0, 0, 219, 1.518660468491362e-07
0, 0, 220, 1.530844571107082e-07
0, 0, 221, 1.536475480179433e-07
0, 0, 222, 1.55176138605384e-07
0, 0, 223, 1.574297243678302e-07
0, 0, 224, 1.58152857920868e-07
0, 0, 225, 1.604400381438609e-07
0, 0, 226, 1.616277813809575e-07
0, 0, 227, 1.643171003706811e-07
0, 0, 228, 1.655407686484978e-07
0, 0, 229, 1.681505636952352e-07
0, 0, 230, 1.700974507912179e-07
0, 0, 231, 1.724213376519401e-07
0, 0, 232, 1.748199736084644e-07
0, 0, 233, 1.771520459215026e-07
0, 0, 234, 1.806968157325173e-07
0, 0, 235, 1.834658434063385e-07
0, 0, 236, 1.871095491878805e-07
0, 0, 237, 1.895097483384234e-07
0, 0, 238, 1.930159925223052e-07
0, 0, 239, 1.971065302086572e-07
0, 0, 240, 2.013647417697939e-07
0, 0, 241, 2.067145601358789e-07
0, 0, 242, 2.11042006981188e-07
0, 0, 243, 2.174400748344851e-07
0, 0, 244, 2.229164266509542e-07
0, 0, 245, 2.302901123130141e-07
0, 0, 246, 2.388727580182604e-07
0, 0, 247, 2.484510162048537e-07
0, 0, 248, 2.591069403479196e-07
0, 0, 249, 2.71460322665007e-07
0, 0, 250, 2.858664345239958e-07
0, 0, 251, 3.043881520170544e-07
0, 0, 252, 3.255968294979539e-07
0, 0, 253, 3.486245248041087e-07
0, 0, 254, 3.685660203700536e-07
0, 0, 255, 3.81052529974113e-07
0, 0, 256, 3.800111016971641e-07
0, 0, 257, 3.592293467136187e-07
0, 0, 258, 3.135590134206723e-07
0, 0, 259, 2.498984201793064e-07
0, 0, 260, 1.79291504309731e-07
0, 0, 261, 1.1364934238145e-07
0, 0, 262, 6.54619896067743e-08
0, 0, 263, 3.23129967227942e-08
0, 0, 264, 1.399709148586226e-08
0, 0, 265, 5.847849315898657e-09
0, 0, 266, 2.431084666909555e-09
0, 0, 267, 1.337340793661213e-09
0, 0, 268, 9.99305416193863e-10
0, 0, 269, 9.490912500353943e-10
0, 0, 270, 9.304706449775324e-10
0, 0, 271, 1.039024533078248e-09
0, 0, 272, 8.018096742112846e-10
0, 0, 273, 7.758134690227791e-10
0, 0, 274, 7.746805974484516e-10
0, 0, 275, 8.744954760331325e-10
0, 0, 276, 8.039871546294819e-10
0, 0, 277, 7.763139575622802e-10
0, 0, 278, 7.321881434485533e-10
0, 0, 279, 7.6581097019357e-10
0, 0, 280, 8.060946354859766e-10
0, 0, 281, 9.223097285904203e-10
0, 0, 282, 8.22202861350263e-10
0, 0, 283, 7.669763157913678e-10
0, 0, 284, 8.41609393287257e-10
0, 0, 285, 7.395365986262448e-10
0, 0, 286, 6.272161123810349e-10
0, 0, 287, 6.575482380810627e-10
0, 0, 288, 7.175481875343337e-10
0, 0, 289, 6.981544231621228e-10
0, 0, 290, 7.245462563254534e-10
0, 0, 291, 7.885335717716657e-10
0, 0, 292, 6.621549974994423e-10
0, 0, 293, 6.504493055281557e-10
0, 0, 294, 7.378920252598675e-10
0, 0, 295, 7.132643919938175e-10
0, 0, 296, 7.167380022821135e-10
0, 0, 297, 6.767813531816103e-10
0, 0, 298, 7.424898473828989e-10
0, 0, 299, 7.15867032319295e-10
0, 0, 300, 6.636435290197085e-10
