# TOPAS Version: 3.9
# Parameter File: pristine_temp.txt
# Results for scorer: DosePhantom
# Scored in component: Phantom
# X in 1 bin  of 30 cm
# Y in 1 bin  of 30 cm
# Z in 301 bins of 0.0996678 cm
# DoseToMedium ( Gy ) : Sum   
0, 0, 0, 1.253451955562923e-07
0, 0, 1, 1.276649896908566e-07
0, 0, 2, 1.280840820072626e-07
0, 0, 3, 1.287644835201718e-07
0, 0, 4, 1.297372733688462e-07
0, 0, 5, 1.308735306793096e-07
0, 0, 6, 1.321245122198889e-07
0, 0, 7, 1.329412810946451e-07
0, 0, 8, 1.335999542106947e-07
0, 0, 9, 1.337876653906278e-07
0, 0, 10, 1.351357923340402e-07
0, 0, 11, 1.361529768928449e-07
0, 0, 12, 1.37067900141119e-07
0, 0, 13, 1.378456886413915e-07
0, 0, 14, 1.383978656122054e-07
0, 0, 15, 1.394052588921113e-07
0, 0, 16, 1.401957661073538e-07
0, 0, 17, 1.40252041092026e-07
0, 0, 18, 1.415819070871294e-07
0, 0, 19, 1.419007560343744e-07
0, 0, 20, 1.427214755267414e-07
0, 0, 21, 1.436328744830462e-07
0, 0, 22, 1.450209339282083e-07
0, 0, 23, 1.463180296923383e-07
0, 0, 24, 1.46211760920778e-07
0, 0, 25, 1.474589765848577e-07
0, 0, 26, 1.484934557538509e-07
0, 0, 27, 1.492846450901197e-07
0, 0, 28, 1.504581632616464e-07
0, 0, 29, 1.513670895292307e-07
0, 0, 30, 1.520593713166818e-07
0, 0, 31, 1.532112889890413e-07
0, 0, 32, 1.545672034808376e-07
0, 0, 33, 1.549377230958271e-07
0, 0, 34, 1.5691453825184e-07
0, 0, 35, 1.577262054297535e-07
0, 0, 36, 1.592892147073144e-07
0, 0, 37, 1.6030411131851e-07
0, 0, 38, 1.613677511613787e-07
0, 0, 39, 1.623836283215496e-07
0, 0, 40, 1.640865008312176e-07
0, 0, 41, 1.649553098559409e-07
0, 0, 42, 1.660022803662287e-07
0, 0, 43, 1.673803922130901e-07
0, 0, 44, 1.696913614068762e-07
0, 0, 45, 1.707779802018194e-07
0, 0, 46, 1.721382005825944e-07
0, 0, 47, 1.737752057806574e-07
0, 0, 48, 1.751861304910562e-07
0, 0, 49, 1.76788120143101e-07
0, 0, 50, 1.790272960988659e-07
0, 0, 51, 1.80408122218978e-07
0, 0, 52, 1.826209796718103e-07
0, 0, 53, 1.837317853414788e-07
0, 0, 54, 1.866717269649598e-07
0, 0, 55, 1.884685048025858e-07
0, 0, 56, 1.914391418722516e-07
0, 0, 57, 1.940679936751621e-07
0, 0, 58, 1.955194477432087e-07
0, 0, 59, 1.984199116122909e-07
0, 0, 60, 2.008897723726477e-07
0, 0, 61, 2.042076232555701e-07
0, 0, 62, 2.069716344976769e-07
0, 0, 63, 2.103816427734273e-07
0, 0, 64, 2.140001384987045e-07
0, 0, 65, 2.182727456556677e-07
0, 0, 66, 2.216001036003945e-07
0, 0, 67, 2.266393579475334e-07
0, 0, 68, 2.315565836852329e-07
0, 0, 69, 2.366906102224675e-07
0, 0, 70, 2.415490314433555e-07
0, 0, 71, 2.46933950620587e-07
0, 0, 72, 2.528559264192154e-07
0, 0, 73, 2.601415189928957e-07
0, 0, 74, 2.690255769266514e-07
0, 0, 75, 2.768746298897895e-07
0, 0, 76, 2.866387376343482e-07
0, 0, 77, 2.984311890941171e-07
0, 0, 78, 3.115638378403673e-07
0, 0, 79, 3.27054294757545e-07
0, 0, 80, 3.471511149655271e-07
0, 0, 81, 3.707772577854485e-07
0, 0, 82, 4.011054670627345e-07
0, 0, 83, 4.398605710775882e-07
0, 0, 84, 4.965576181348297e-07
0, 0, 85, 5.845658961334266e-07
0, 0, 86, 6.869307753731846e-07
0, 0, 87, 6.284141704782087e-07
0, 0, 88, 3.196325337739836e-07
0, 0, 89, 7.149148473217792e-08
0, 0, 90, 6.373246819180167e-09
0, 0, 91, 7.033660875954695e-10
0, 0, 92, 4.979656686998624e-10
0, 0, 93, 4.019026500490241e-10
0, 0, 94, 4.491542970885831e-10
0, 0, 95, 4.490861571504468e-10
0, 0, 96, 3.969463091557657e-10
0, 0, 97, 3.274900906014011e-10
0, 0, 98, 3.712581353454425e-10
0, 0, 99, 4.050652036013958e-10
0, 0, 100, 3.683389149244931e-10
0, 0, 101, 4.095548344906774e-10
0, 0, 102, 3.623256139562159e-10
0, 0, 103, 3.086218780534722e-10
0, 0, 104, 4.569217781913437e-10
0, 0, 105, 3.518475788499842e-10
0, 0, 106, 4.073793524739244e-10
0, 0, 107, 3.648489010910083e-10
0, 0, 108, 3.035801332540444e-10
0, 0, 109, 3.116089331012262e-10
0, 0, 110, 3.801841619299751e-10
0, 0, 111, 4.15107337392584e-10
0, 0, 112, 2.855647385224813e-10
0, 0, 113, 2.974180346448918e-10
0, 0, 114, 3.649158197838176e-10
0, 0, 115, 3.333910647551619e-10
0, 0, 116, 3.803817261172071e-10
0, 0, 117, 4.11457895532763e-10
0, 0, 118, 3.387813363175951e-10
0, 0, 119, 3.414044325023013e-10
0, 0, 120, 2.606048987718879e-10
0, 0, 121, 2.134236537498779e-10
0, 0, 122, 3.345900778661814e-10
0, 0, 123, 2.998677139931516e-10
0, 0, 124, 3.42697453747931e-10
0, 0, 125, 3.558579819706864e-10
0, 0, 126, 3.384732771838372e-10
0, 0, 127, 2.58133486807921e-10
0, 0, 128, 2.725554781868311e-10
0, 0, 129, 3.886777288908405e-10
0, 0, 130, 3.015862282129689e-10
0, 0, 131, 3.136604587172798e-10
0, 0, 132, 2.252366904098579e-10
0, 0, 133, 2.887442784871297e-10
0, 0, 134, 2.7182955886218e-10
0, 0, 135, 2.843960622556096e-10
0, 0, 136, 2.554721434400165e-10
0, 0, 137, 2.691115663644439e-10
0, 0, 138, 2.446096658559327e-10
0, 0, 139, 2.54600812654715e-10
0, 0, 140, 3.077954280339412e-10
0, 0, 141, 2.403742760392902e-10
0, 0, 142, 2.857056813354575e-10
0, 0, 143, 2.203729004834898e-10
0, 0, 144, 1.545227834576224e-10
0, 0, 145, 1.694809154129118e-10
0, 0, 146, 2.947177224488229e-10
0, 0, 147, 2.123924508490305e-10
0, 0, 148, 2.18805917828746e-10
0, 0, 149, 2.781249119898632e-10
0, 0, 150, 1.96941921104532e-10
0, 0, 151, 2.196466342141434e-10
0, 0, 152, 2.280234473461817e-10
0, 0, 153, 2.578304514333496e-10
0, 0, 154, 2.083764411020539e-10
0, 0, 155, 2.195434667395801e-10
0, 0, 156, 1.866130167060831e-10
0, 0, 157, 1.980444558347116e-10
0, 0, 158, 2.101610829807754e-10
0, 0, 159, 2.036821683537582e-10
0, 0, 160, 2.173844854125306e-10
0, 0, 161, 1.769038665555556e-10
0, 0, 162, 1.490882139965066e-10
0, 0, 163, 2.72879857599051e-10
0, 0, 164, 2.191120479499986e-10
0, 0, 165, 1.788844627981234e-10
0, 0, 166, 1.534603139008439e-10
0, 0, 167, 2.496096385140589e-10
0, 0, 168, 2.90397150770616e-10
0, 0, 169, 1.82768758461016e-10
0, 0, 170, 1.897827589525392e-10
0, 0, 171, 2.087899159119999e-10
0, 0, 172, 1.817951900129344e-10
0, 0, 173, 1.438250352148174e-10
0, 0, 174, 2.622080608194466e-10
0, 0, 175, 2.700248913356518e-10
0, 0, 176, 1.592032061736859e-10
0, 0, 177, 1.391043530363234e-10
0, 0, 178, 1.916286435088566e-10
0, 0, 179, 1.523336873310299e-10
0, 0, 180, 2.379877683811316e-10
0, 0, 181, 2.192060283290331e-10
0, 0, 182, 2.312248309488396e-10
0, 0, 183, 2.141389982002195e-10
0, 0, 184, 1.918098319064754e-10
0, 0, 185, 2.0533348632501e-10
0, 0, 186, 2.656926623156863e-10
0, 0, 187, 1.590176323951198e-10
0, 0, 188, 2.039675789378137e-10
0, 0, 189, 2.481143623889182e-10
0, 0, 190, 2.110246422049045e-10
0, 0, 191, 2.015416999956443e-10
0, 0, 192, 1.629402862635132e-10
0, 0, 193, 2.300782758757336e-10
0, 0, 194, 2.124269371517329e-10
0, 0, 195, 1.98056779310285e-10
0, 0, 196, 1.997161325206775e-10
0, 0, 197, 1.486567952069251e-10
0, 0, 198, 1.502694357835566e-10
0, 0, 199, 1.683988087863852e-10
0, 0, 200, 1.147940770218625e-10
0, 0, 201, 1.05620436008369e-10
0, 0, 202, 1.616055206321576e-10
0, 0, 203, 1.323986476009509e-10
0, 0, 204, 1.91413787598016e-10
0, 0, 205, 1.684043321459328e-10
0, 0, 206, 1.693257339896448e-10
0, 0, 207, 1.287020767737346e-10
0, 0, 208, 1.11399868496509e-10
0, 0, 209, 1.37056713200856e-10
0, 0, 210, 1.769130258955087e-10
0, 0, 211, 1.502779567452706e-10
0, 0, 212, 1.411860212074956e-10
0, 0, 213, 1.33719438299984e-10
0, 0, 214, 1.268756349981359e-10
0, 0, 215, 1.22849758144028e-10
0, 0, 216, 1.482892419968351e-10
0, 0, 217, 1.334134747121851e-10
0, 0, 218, 1.103822450110314e-10
0, 0, 219, 1.498804413913035e-10
0, 0, 220, 1.663038873278566e-10
0, 0, 221, 1.663037207944029e-10
0, 0, 222, 1.595112375518681e-10
0, 0, 223, 1.08615505478582e-10
0, 0, 224, 9.3066665485253e-11
0, 0, 225, 1.598603471819615e-10
0, 0, 226, 7.907988153199597e-11
0, 0, 227, 6.620946152446905e-11
0, 0, 228, 1.112531247682291e-10
0, 0, 229, 1.247033865059421e-10
0, 0, 230, 9.237047238208618e-11
0, 0, 231, 1.25402466188973e-10
0, 0, 232, 1.338328753375251e-10
0, 0, 233, 1.124167495203388e-10
0, 0, 234, 8.745255908326754e-11
0, 0, 235, 8.743513552067483e-11
0, 0, 236, 1.008246888756226e-10
0, 0, 237, 1.443608566020771e-10
0, 0, 238, 7.510324306903016e-11
0, 0, 239, 1.676477151546507e-10
0, 0, 240, 9.151638474813595e-11
0, 0, 241, 7.830479320514172e-11
0, 0, 242, 1.101048072160715e-10
0, 0, 243, 1.366736307462091e-10
0, 0, 244, 9.175470105926564e-11
0, 0, 245, 1.023018336709924e-10
0, 0, 246, 1.082939987684384e-10
0, 0, 247, 9.815085549869096e-11
0, 0, 248, 8.356419028965334e-11
0, 0, 249, 1.257759035810935e-10
0, 0, 250, 7.603794677235598e-11
0, 0, 251, 1.326432713666392e-10
0, 0, 252, 4.283315022113321e-11
0, 0, 253, 8.497854503408675e-11
0, 0, 254, 1.208826233556337e-10
0, 0, 255, 1.39663072773466e-10
0, 0, 256, 1.172148489381186e-10
0, 0, 257, 2.069020094142004e-10
0, 0, 258, 6.830042087457855e-11
0, 0, 259, 1.557443479738296e-10
0, 0, 260, 8.676528245876725e-11
0, 0, 261, 7.88732343326437e-11
0, 0, 262, 9.819117047227266e-11
0, 0, 263, 7.953661340653895e-11
0, 0, 264, 1.870081034471838e-10
0, 0, 265, 1.54063192758791e-10
0, 0, 266, 8.949972707394949e-11
0, 0, 267, 1.127781409926421e-10
0, 0, 268, 7.389975437144258e-11
0, 0, 269, 1.009909447735602e-10
0, 0, 270, 1.449185771384975e-10
0, 0, 271, 1.473250826888872e-10
0, 0, 272, 6.255963108658946e-11
0, 0, 273, 9.417762403263197e-11
0, 0, 274, 6.160405519040069e-11
0, 0, 275, 8.689594876987172e-11
0, 0, 276, 6.323712387068525e-11
0, 0, 277, 3.608109297448259e-11
0, 0, 278, 5.753903256633386e-11
0, 0, 279, 4.169256606623151e-11
0, 0, 280, 8.449409921729156e-11
0, 0, 281, 8.035748455537117e-11
0, 0, 282, 4.731704958405025e-11
0, 0, 283, 4.077321119622113e-11
0, 0, 284, 5.361533092496096e-11
0, 0, 285, 5.800637400965591e-11
0, 0, 286, 9.374266640715945e-11
0, 0, 287, 7.388425982135516e-11
0, 0, 288, 5.680538331387375e-11
0, 0, 289, 5.68764271791089e-11
0, 0, 290, 5.076405268367168e-11
0, 0, 291, 5.698310226454062e-11
0, 0, 292, 3.563270858930601e-11
0, 0, 293, 6.259580354051053e-11
0, 0, 294, 2.512279620447977e-11
0, 0, 295, 3.494903325074183e-11
0, 0, 296, 6.595398532871499e-11
0, 0, 297, 6.589535167522698e-11
0, 0, 298, 7.77284764330588e-11
0, 0, 299, 4.575392148487012e-11
0, 0, 300, 2.855899891573976e-11
