# TOPAS Version: 3.9
# Parameter File: pristine_temp.txt
# Results for scorer: DosePhantom
# Scored in component: Phantom
# X in 1 bin  of 30 cm
# Y in 1 bin  of 30 cm
# Z in 301 bins of 0.0996678 cm
# DoseToMedium ( Gy ) : Sum   
0, 0, 0, 1.245680465444821e-07
0, 0, 1, 1.269081337795797e-07
0, 0, 2, 1.278766603718395e-07
0, 0, 3, 1.279457109149007e-07
0, 0, 4, 1.289148485739133e-07
0, 0, 5, 1.294669402795989e-07
0, 0, 6, 1.310405792764868e-07
0, 0, 7, 1.322078304610841e-07
0, 0, 8, 1.325033451848867e-07
0, 0, 9, 1.331495127487869e-07
0, 0, 10, 1.342480686616909e-07
0, 0, 11, 1.350241518593975e-07
0, 0, 12, 1.355745098408079e-07
0, 0, 13, 1.363515877983446e-07
0, 0, 14, 1.370001569966917e-07
0, 0, 15, 1.377181320094678e-07
0, 0, 16, 1.389332311418912e-07
0, 0, 17, 1.396390132413217e-07
0, 0, 18, 1.404799121473843e-07
0, 0, 19, 1.412940378031635e-07
0, 0, 20, 1.416479307181362e-07
0, 0, 21, 1.434062397720481e-07
0, 0, 22, 1.446416177941501e-07
0, 0, 23, 1.456421614420833e-07
0, 0, 24, 1.461134928604224e-07
0, 0, 25, 1.465804899680734e-07
0, 0, 26, 1.472810140512593e-07
0, 0, 27, 1.48364662777567e-07
0, 0, 28, 1.493296792887122e-07
0, 0, 29, 1.504963336174114e-07
0, 0, 30, 1.509599343307855e-07
0, 0, 31, 1.517789911531509e-07
0, 0, 32, 1.534346552034549e-07
0, 0, 33, 1.534809115355529e-07
0, 0, 34, 1.546172967437087e-07
0, 0, 35, 1.561337796829321e-07
0, 0, 36, 1.575115646801351e-07
0, 0, 37, 1.58641157099737e-07
0, 0, 38, 1.596366558942464e-07
0, 0, 39, 1.615673852484178e-07
0, 0, 40, 1.621100835791367e-07
0, 0, 41, 1.63945017561673e-07
0, 0, 42, 1.653462504691561e-07
0, 0, 43, 1.658741126675523e-07
0, 0, 44, 1.675907697062939e-07
0, 0, 45, 1.680194685604874e-07
0, 0, 46, 1.702323260133198e-07
0, 0, 47, 1.722804938708578e-07
0, 0, 48, 1.732532552978228e-07
0, 0, 49, 1.751135130234616e-07
0, 0, 50, 1.766920547652262e-07
0, 0, 51, 1.78012314222542e-07
0, 0, 52, 1.802179241394697e-07
0, 0, 53, 1.81923724085209e-07
0, 0, 54, 1.845111086140605e-07
0, 0, 55, 1.861077123521682e-07
0, 0, 56, 1.892867942387966e-07
0, 0, 57, 1.911596569925678e-07
0, 0, 58, 1.926485708736436e-07
0, 0, 59, 1.956929764901361e-07
0, 0, 60, 1.980099000320479e-07
0, 0, 61, 2.015052871229273e-07
0, 0, 62, 2.040536344338761e-07
0, 0, 63, 2.073818166081765e-07
0, 0, 64, 2.107086345404241e-07
0, 0, 65, 2.141691766155418e-07
0, 0, 66, 2.172030519886903e-07
0, 0, 67, 2.217056760400737e-07
0, 0, 68, 2.269842411806167e-07
0, 0, 69, 2.309221827090369e-07
0, 0, 70, 2.357976001121642e-07
0, 0, 71, 2.417139626231801e-07
0, 0, 72, 2.476753877544979e-07
0, 0, 73, 2.534241048124386e-07
0, 0, 74, 2.609595242120122e-07
0, 0, 75, 2.680039585811755e-07
0, 0, 76, 2.76536894716628e-07
0, 0, 77, 2.865838268917287e-07
0, 0, 78, 2.98039594781585e-07
0, 0, 79, 3.115671631803707e-07
0, 0, 80, 3.26739439060475e-07
0, 0, 81, 3.460918946984748e-07
0, 0, 82, 3.696309818224108e-07
0, 0, 83, 3.989769368217821e-07
0, 0, 84, 4.386192813399248e-07
0, 0, 85, 4.929116244056786e-07
0, 0, 86, 5.815041959067457e-07
0, 0, 87, 6.830984489170078e-07
0, 0, 88, 6.286230131991033e-07
0, 0, 89, 3.294286727850704e-07
0, 0, 90, 7.665167345294321e-08
0, 0, 91, 7.663814471925434e-09
0, 0, 92, 7.448172079094206e-10
0, 0, 93, 4.62072741180819e-10
0, 0, 94, 4.571329981217787e-10
0, 0, 95, 3.854943864123328e-10
0, 0, 96, 4.080288329433301e-10
0, 0, 97, 5.469661390478109e-10
0, 0, 98, 3.615875099338695e-10
0, 0, 99, 3.617093291552465e-10
0, 0, 100, 3.047674335121542e-10
0, 0, 101, 3.370804191327181e-10
0, 0, 102, 3.64708402367242e-10
0, 0, 103, 3.539185056133931e-10
0, 0, 104, 3.198995512931901e-10
0, 0, 105, 4.95472274320008e-10
0, 0, 106, 2.878633720282409e-10
0, 0, 107, 3.666311143568635e-10
0, 0, 108, 3.684049731944583e-10
0, 0, 109, 4.173705825394336e-10
0, 0, 110, 4.060559943841469e-10
0, 0, 111, 3.453517471996292e-10
0, 0, 112, 2.809291965721883e-10
0, 0, 113, 4.150779164824314e-10
0, 0, 114, 3.573513707166853e-10
0, 0, 115, 4.472281434075853e-10
0, 0, 116, 3.957242034058339e-10
0, 0, 117, 3.732358311303585e-10
0, 0, 118, 3.797719083653561e-10
0, 0, 119, 4.86035822699904e-10
0, 0, 120, 2.912053376213919e-10
0, 0, 121, 3.13057774148362e-10
0, 0, 122, 3.505969126127439e-10
0, 0, 123, 2.391934705858745e-10
0, 0, 124, 2.315184433054895e-10
0, 0, 125, 3.350265898038884e-10
0, 0, 126, 2.79346074050224e-10
0, 0, 127, 2.774512564140963e-10
0, 0, 128, 2.283398053970487e-10
0, 0, 129, 2.532676568467451e-10
0, 0, 130, 2.747883864895329e-10
0, 0, 131, 2.361971451758649e-10
0, 0, 132, 2.608579185991999e-10
0, 0, 133, 2.731865011984524e-10
0, 0, 134, 2.496244599914377e-10
0, 0, 135, 2.813043409322091e-10
0, 0, 136, 2.751717742555115e-10
0, 0, 137, 2.43609382666321e-10
0, 0, 138, 3.561356209935695e-10
0, 0, 139, 2.709549251633803e-10
0, 0, 140, 2.661472431331191e-10
0, 0, 141, 2.290335976429247e-10
0, 0, 142, 3.071038423563266e-10
0, 0, 143, 2.658377684650048e-10
0, 0, 144, 2.528228459919291e-10
0, 0, 145, 3.71941422105948e-10
0, 0, 146, 2.553511291303323e-10
0, 0, 147, 2.097971935066667e-10
0, 0, 148, 1.97845850813394e-10
0, 0, 149, 1.863404847091132e-10
0, 0, 150, 1.879030681051219e-10
0, 0, 151, 2.152020783796615e-10
0, 0, 152, 2.480501914980948e-10
0, 0, 153, 2.573081747669903e-10
0, 0, 154, 2.120510989023217e-10
0, 0, 155, 2.131574639019362e-10
0, 0, 156, 2.237770940771711e-10
0, 0, 157, 1.654849590693175e-10
0, 0, 158, 1.964951396038472e-10
0, 0, 159, 2.337657567519358e-10
0, 0, 160, 2.140268517969446e-10
0, 0, 161, 1.918791653343632e-10
0, 0, 162, 2.060946829862687e-10
0, 0, 163, 1.186287595933422e-10
0, 0, 164, 1.788359044185839e-10
0, 0, 165, 1.965000384629434e-10
0, 0, 166, 2.375628582740319e-10
0, 0, 167, 1.788438841465734e-10
0, 0, 168, 1.778076158531761e-10
0, 0, 169, 2.320030695335262e-10
0, 0, 170, 1.643016694918842e-10
0, 0, 171, 2.095711659766408e-10
0, 0, 172, 1.664017534874773e-10
0, 0, 173, 1.905971908078286e-10
0, 0, 174, 1.892151574311995e-10
0, 0, 175, 1.332944865595209e-10
0, 0, 176, 1.030441704186202e-10
0, 0, 177, 2.134619703220153e-10
0, 0, 178, 1.827219486827403e-10
0, 0, 179, 1.365895452298815e-10
0, 0, 180, 1.457418907779839e-10
0, 0, 181, 2.160171902465535e-10
0, 0, 182, 2.092537115805371e-10
0, 0, 183, 1.973458479964663e-10
0, 0, 184, 2.038598734266373e-10
0, 0, 185, 2.045240643511193e-10
0, 0, 186, 1.605511557034589e-10
0, 0, 187, 2.340488913787908e-10
0, 0, 188, 1.617245781737608e-10
0, 0, 189, 1.521969078543961e-10
0, 0, 190, 1.731157300843833e-10
0, 0, 191, 1.67402466888511e-10
0, 0, 192, 1.958393031076255e-10
0, 0, 193, 2.569815749087212e-10
0, 0, 194, 1.985162034756627e-10
0, 0, 195, 1.705817154196154e-10
0, 0, 196, 2.102629598210726e-10
0, 0, 197, 1.821303663440688e-10
0, 0, 198, 2.136598675761547e-10
0, 0, 199, 1.780408320772864e-10
0, 0, 200, 1.954550271632272e-10
0, 0, 201, 1.420191186873865e-10
0, 0, 202, 2.150399580624907e-10
0, 0, 203, 1.602074028994593e-10
0, 0, 204, 1.412025080194113e-10
0, 0, 205, 1.453048653621281e-10
0, 0, 206, 1.49612142119615e-10
0, 0, 207, 1.063728063965819e-10
0, 0, 208, 1.770397856093453e-10
0, 0, 209, 1.783071468253183e-10
0, 0, 210, 7.398226475885394e-11
0, 0, 211, 9.102166242946907e-11
0, 0, 212, 7.038690463812003e-11
0, 0, 213, 7.085450282051653e-11
0, 0, 214, 9.131903566661492e-11
0, 0, 215, 1.072240907173949e-10
0, 0, 216, 7.301000776172017e-11
0, 0, 217, 7.21304474482487e-11
0, 0, 218, 9.686077634407653e-11
0, 0, 219, 1.25980434417805e-10
0, 0, 220, 1.244106623277119e-10
0, 0, 221, 1.474831368142304e-10
0, 0, 222, 1.563140727967038e-10
0, 0, 223, 1.164511126416912e-10
0, 0, 224, 8.992102201732521e-11
0, 0, 225, 6.825742054905604e-11
0, 0, 226, 9.491119695725914e-11
0, 0, 227, 9.288724650557967e-11
0, 0, 228, 1.742650190816875e-10
0, 0, 229, 7.32187296903497e-11
0, 0, 230, 9.484161372919075e-11
0, 0, 231, 1.476195415905934e-10
0, 0, 232, 1.086626899571286e-10
0, 0, 233, 1.074071873108373e-10
0, 0, 234, 9.263578099050207e-11
0, 0, 235, 5.333839273036212e-11
0, 0, 236, 1.1942193067771e-10
0, 0, 237, 1.595483051231028e-10
0, 0, 238, 7.94040527773987e-11
0, 0, 239, 1.636545066130424e-10
0, 0, 240, 9.090186936511202e-11
0, 0, 241, 1.325236864690993e-10
0, 0, 242, 8.726216971233214e-11
0, 0, 243, 6.143503067379541e-11
0, 0, 244, 1.06580834435821e-10
0, 0, 245, 1.079696193562185e-10
0, 0, 246, 1.169516428145556e-10
0, 0, 247, 7.434133170169943e-11
0, 0, 248, 1.219834649957008e-10
0, 0, 249, 9.308253473561123e-11
0, 0, 250, 9.094122677133498e-11
0, 0, 251, 1.722913894885991e-10
0, 0, 252, 6.180361084018315e-11
0, 0, 253, 9.902843822739982e-11
0, 0, 254, 7.158901943471463e-11
0, 0, 255, 7.721039085861747e-11
0, 0, 256, 1.141283526018277e-10
0, 0, 257, 9.599843142638065e-11
0, 0, 258, 9.258159516800646e-11
0, 0, 259, 8.669999440602538e-11
0, 0, 260, 4.058439348475495e-11
0, 0, 261, 1.284168466009206e-10
0, 0, 262, 6.564068733005968e-11
0, 0, 263, 4.946093881685876e-11
0, 0, 264, 1.092432186378112e-10
0, 0, 265, 7.667835810742929e-11
0, 0, 266, 4.882225873581447e-11
0, 0, 267, 7.021715153765484e-11
0, 0, 268, 8.098026416103465e-11
0, 0, 269, 6.848390604607957e-11
0, 0, 270, 1.021213877350213e-10
0, 0, 271, 7.152366893192763e-11
0, 0, 272, 6.342999736563826e-11
0, 0, 273, 5.404296107847095e-11
0, 0, 274, 5.405102060374034e-11
0, 0, 275, 3.554338420808101e-11
0, 0, 276, 5.441655459570427e-11
0, 0, 277, 7.232335563767123e-11
0, 0, 278, 6.901096361033865e-11
0, 0, 279, 1.138990984861366e-10
0, 0, 280, 7.065718843346502e-11
0, 0, 281, 6.84418771657036e-11
0, 0, 282, 6.071151914532891e-11
0, 0, 283, 6.057021550986974e-11
0, 0, 284, 1.102614041736949e-10
0, 0, 285, 9.467363698556497e-11
0, 0, 286, 4.04274842769059e-11
0, 0, 287, 2.056519711468585e-11
0, 0, 288, 8.499855680410562e-11
0, 0, 289, 4.179947360460901e-11
0, 0, 290, 5.997843194327501e-11
0, 0, 291, 8.462959499855316e-11
0, 0, 292, 8.60134533042789e-11
0, 0, 293, 4.042802898007736e-11
0, 0, 294, 7.79110456705645e-11
0, 0, 295, 3.29201700621784e-11
0, 0, 296, 8.391214112446477e-11
0, 0, 297, 4.061845998437619e-11
0, 0, 298, 7.284464698109616e-11
0, 0, 299, 7.091310871842893e-11
0, 0, 300, 8.269417095529974e-11
