# TOPAS Version: 3.9
# Parameter File: pristine_temp.txt
# Results for scorer: DosePhantom
# Scored in component: Phantom
# X in 1 bin  of 30 cm
# Y in 1 bin  of 30 cm
# Z in 301 bins of 0.0996678 cm
# DoseToMedium ( Gy ) : Sum   
0, 0, 0, 1.018103716887708e-07
0, 0, 1, 1.038359087601748e-07
0, 0, 2, 1.038960846244663e-07
0, 0, 3, 1.046448545594103e-07
0, 0, 4, 1.048309030693417e-07
0, 0, 5, 1.054587102089499e-07
0, 0, 6, 1.066530330717796e-07
0, 0, 7, 1.069900221750686e-07
0, 0, 8, 1.074297841796579e-07
0, 0, 9, 1.075376943049378e-07
0, 0, 10, 1.078758913308775e-07
0, 0, 11, 1.080765414940288e-07
0, 0, 12, 1.081467502217492e-07
0, 0, 13, 1.093827037834672e-07
0, 0, 14, 1.095063879574809e-07
0, 0, 15, 1.095944597295784e-07
0, 0, 16, 1.105033362591712e-07
0, 0, 17, 1.108304914509972e-07
0, 0, 18, 1.112594603114303e-07
0, 0, 19, 1.116113566013155e-07
0, 0, 20, 1.11435639382762e-07
0, 0, 21, 1.120213113381396e-07
0, 0, 22, 1.118689070267465e-07
0, 0, 23, 1.128398352534532e-07
0, 0, 24, 1.142949557220163e-07
0, 0, 25, 1.13961853287492e-07
0, 0, 26, 1.141565988405091e-07
0, 0, 27, 1.136694720571541e-07
0, 0, 28, 1.147350090491273e-07
0, 0, 29, 1.150815052142207e-07
0, 0, 30, 1.154769009303891e-07
0, 0, 31, 1.159965421493325e-07
0, 0, 32, 1.16048809672975e-07
0, 0, 33, 1.166020666687473e-07
0, 0, 34, 1.167099625831725e-07
0, 0, 35, 1.174980894802502e-07
0, 0, 36, 1.176712132178181e-07
0, 0, 37, 1.184966151868139e-07
0, 0, 38, 1.187859126616786e-07
0, 0, 39, 1.190415801488598e-07
0, 0, 40, 1.19885768867789e-07
0, 0, 41, 1.204012960442924e-07
0, 0, 42, 1.205174697815892e-07
0, 0, 43, 1.208610456160386e-07
0, 0, 44, 1.218266163505177e-07
0, 0, 45, 1.216874210285823e-07
0, 0, 46, 1.220403760271438e-07
0, 0, 47, 1.225691761419512e-07
0, 0, 48, 1.234663216109766e-07
0, 0, 49, 1.235288351608688e-07
0, 0, 50, 1.244296043978466e-07
0, 0, 51, 1.246979479674337e-07
0, 0, 52, 1.24671885259886e-07
0, 0, 53, 1.250794809948275e-07
0, 0, 54, 1.254100254755031e-07
0, 0, 55, 1.259273858522647e-07
0, 0, 56, 1.266732141402827e-07
0, 0, 57, 1.267881089006551e-07
0, 0, 58, 1.274816412433211e-07
0, 0, 59, 1.275508623166388e-07
0, 0, 60, 1.28197029880539e-07
0, 0, 61, 1.281755430682097e-07
0, 0, 62, 1.297803322586333e-07
0, 0, 63, 1.295640572607226e-07
0, 0, 64, 1.302087326848778e-07
0, 0, 65, 1.300415846117176e-07
0, 0, 66, 1.308681021328084e-07
0, 0, 67, 1.319813662803426e-07
0, 0, 68, 1.315542590418772e-07
0, 0, 69, 1.325070826396768e-07
0, 0, 70, 1.328432261971102e-07
0, 0, 71, 1.340890065648637e-07
0, 0, 72, 1.339256670007671e-07
0, 0, 73, 1.345274256436824e-07
0, 0, 74, 1.357568635285133e-07
0, 0, 75, 1.360921828563733e-07
0, 0, 76, 1.365438322409318e-07
0, 0, 77, 1.373181817143632e-07
0, 0, 78, 1.380603578127193e-07
0, 0, 79, 1.386264045777352e-07
0, 0, 80, 1.391025108432586e-07
0, 0, 81, 1.39846619617856e-07
0, 0, 82, 1.401780309606693e-07
0, 0, 83, 1.412010419699072e-07
0, 0, 84, 1.424528761617694e-07
0, 0, 85, 1.43426305498906e-07
0, 0, 86, 1.425388944653605e-07
0, 0, 87, 1.436724943459922e-07
0, 0, 88, 1.450148658932449e-07
0, 0, 89, 1.457580651731405e-07
0, 0, 90, 1.469635861894858e-07
0, 0, 91, 1.469903878614787e-07
0, 0, 92, 1.482008542552649e-07
0, 0, 93, 1.496211297080663e-07
0, 0, 94, 1.500464463788376e-07
0, 0, 95, 1.506879385715365e-07
0, 0, 96, 1.513909353434428e-07
0, 0, 97, 1.527417907709605e-07
0, 0, 98, 1.536436258220419e-07
0, 0, 99, 1.546423078480075e-07
0, 0, 100, 1.558906603804644e-07
0, 0, 101, 1.569662373412939e-07
0, 0, 102, 1.574578902818757e-07
0, 0, 103, 1.589563680681749e-07
0, 0, 104, 1.603801393912363e-07
0, 0, 105, 1.611358015907172e-07
0, 0, 106, 1.623133556449829e-07
0, 0, 107, 1.639967877054005e-07
0, 0, 108, 1.652949492836342e-07
0, 0, 109, 1.666834776870019e-07
0, 0, 110, 1.685634600789854e-07
0, 0, 111, 1.698764151569776e-07
0, 0, 112, 1.718284892149313e-07
0, 0, 113, 1.736976287247671e-07
0, 0, 114, 1.749118752059076e-07
0, 0, 115, 1.772214659467863e-07
0, 0, 116, 1.792851236359638e-07
0, 0, 117, 1.816394927800502e-07
0, 0, 118, 1.836203438188022e-07
0, 0, 119, 1.858078633176774e-07
0, 0, 120, 1.883811080460873e-07
0, 0, 121, 1.915763618853816e-07
0, 0, 122, 1.942448761838023e-07
0, 0, 123, 1.960519711019515e-07
0, 0, 124, 1.995891807382577e-07
0, 0, 125, 2.029684651461139e-07
0, 0, 126, 2.063658683937319e-07
0, 0, 127, 2.094526223572757e-07
0, 0, 128, 2.135490575483345e-07
0, 0, 129, 2.175372628698824e-07
0, 0, 130, 2.219789649871018e-07
0, 0, 131, 2.28285315984067e-07
0, 0, 132, 2.32726037552311e-07
0, 0, 133, 2.391319640082656e-07
0, 0, 134, 2.461570147715975e-07
0, 0, 135, 2.530822484914097e-07
0, 0, 136, 2.615627465729631e-07
0, 0, 137, 2.713198909987113e-07
0, 0, 138, 2.823050238021096e-07
0, 0, 139, 2.949020370124344e-07
0, 0, 140, 3.106424628640525e-07
0, 0, 141, 3.298890760561335e-07
0, 0, 142, 3.523501561630837e-07
0, 0, 143, 3.824855241418845e-07
0, 0, 144, 4.207093979857746e-07
0, 0, 145, 4.689211436925689e-07
0, 0, 146, 5.167814833839657e-07
0, 0, 147, 5.285951374389697e-07
0, 0, 148, 4.609096038166172e-07
0, 0, 149, 3.176483005518094e-07
0, 0, 150, 1.610063407042617e-07
0, 0, 151, 5.80271404260202e-08
0, 0, 152, 1.461128995572381e-08
0, 0, 153, 2.991187963985453e-09
0, 0, 154, 9.465436212607869e-10
0, 0, 155, 6.951553777057029e-10
0, 0, 156, 6.642466021666849e-10
0, 0, 157, 5.248912415822815e-10
0, 0, 158, 6.82871592605494e-10
0, 0, 159, 5.950000492305207e-10
0, 0, 160, 6.672659091933042e-10
0, 0, 161, 5.36388322647241e-10
0, 0, 162, 6.09587103017617e-10
0, 0, 163, 5.615513609669165e-10
0, 0, 164, 6.684013897917396e-10
0, 0, 165, 7.455464579031457e-10
0, 0, 166, 6.103472727225778e-10
0, 0, 167, 6.72453370764714e-10
0, 0, 168, 5.554996462819872e-10
0, 0, 169, 5.556902160641641e-10
0, 0, 170, 5.534852576261073e-10
0, 0, 171, 5.497013955135799e-10
0, 0, 172, 5.495194299598438e-10
0, 0, 173, 5.239494949016432e-10
0, 0, 174, 5.267157265897993e-10
0, 0, 175, 6.918698391977784e-10
0, 0, 176, 6.944587682689018e-10
0, 0, 177, 5.6968979533778e-10
0, 0, 178, 6.19746809427113e-10
0, 0, 179, 5.587889040370442e-10
0, 0, 180, 5.371190714420493e-10
0, 0, 181, 4.212062920672111e-10
0, 0, 182, 6.062391699757086e-10
0, 0, 183, 6.165216115405769e-10
0, 0, 184, 5.432019833939705e-10
0, 0, 185, 5.78980308141297e-10
0, 0, 186, 6.143712205641805e-10
0, 0, 187, 6.27640051042988e-10
0, 0, 188, 4.855985613616554e-10
0, 0, 189, 5.462397201227986e-10
0, 0, 190, 5.507660993941954e-10
0, 0, 191, 5.492897803272001e-10
0, 0, 192, 4.013487597820387e-10
0, 0, 193, 3.973434081760985e-10
0, 0, 194, 4.329556990700922e-10
0, 0, 195, 4.59993876322784e-10
0, 0, 196, 4.692219390811658e-10
0, 0, 197, 5.175412320923556e-10
0, 0, 198, 4.700307920657565e-10
0, 0, 199, 3.743066967487607e-10
0, 0, 200, 3.671179749087372e-10
0, 0, 201, 3.557549255184256e-10
0, 0, 202, 3.151472416362822e-10
0, 0, 203, 3.240799573145381e-10
0, 0, 204, 3.193378061983054e-10
0, 0, 205, 4.851105628311814e-10
0, 0, 206, 3.661718428471517e-10
0, 0, 207, 4.252529439696673e-10
0, 0, 208, 3.943886606183611e-10
0, 0, 209, 3.232543122067e-10
0, 0, 210, 3.51872142534404e-10
0, 0, 211, 3.868424747199839e-10
0, 0, 212, 4.219102844871259e-10
0, 0, 213, 3.193380282429104e-10
0, 0, 214, 3.587155295026179e-10
0, 0, 215, 3.78997028205319e-10
0, 0, 216, 3.80755926787657e-10
0, 0, 217, 2.783073771439604e-10
0, 0, 218, 3.215421540136987e-10
0, 0, 219, 3.196927167437025e-10
0, 0, 220, 3.620497235345965e-10
0, 0, 221, 3.902390355303709e-10
0, 0, 222, 5.109034861838779e-10
0, 0, 223, 4.576789502941381e-10
0, 0, 224, 3.818471094874099e-10
0, 0, 225, 3.73453296065307e-10
0, 0, 226, 4.341108861272147e-10
0, 0, 227, 4.063805125742448e-10
0, 0, 228, 3.626078604046512e-10
0, 0, 229, 3.934024495055866e-10
0, 0, 230, 3.972878692692916e-10
0, 0, 231, 4.464314751206899e-10
0, 0, 232, 3.779066226616834e-10
0, 0, 233, 4.043010926046975e-10
0, 0, 234, 4.313198687100339e-10
0, 0, 235, 3.840717743841537e-10
0, 0, 236, 3.820315452873757e-10
0, 0, 237, 3.299564232950303e-10
0, 0, 238, 3.60192292658823e-10
0, 0, 239, 3.751723098854853e-10
0, 0, 240, 3.265638870431076e-10
0, 0, 241, 2.537988708084526e-10
0, 0, 242, 3.025070749451686e-10
0, 0, 243, 3.476964827164863e-10
0, 0, 244, 3.505409573723028e-10
0, 0, 245, 2.694898471045093e-10
0, 0, 246, 3.590860664370865e-10
0, 0, 247, 2.937501630828621e-10
0, 0, 248, 1.931887011474842e-10
0, 0, 249, 1.782105296666003e-10
0, 0, 250, 2.303388868529765e-10
0, 0, 251, 3.004004822670936e-10
0, 0, 252, 2.751863181771341e-10
0, 0, 253, 2.600971105159999e-10
0, 0, 254, 2.427952283667878e-10
0, 0, 255, 3.831731321124465e-10
0, 0, 256, 3.407287230139389e-10
0, 0, 257, 3.429497241747015e-10
0, 0, 258, 3.966284800593911e-10
0, 0, 259, 3.637732615136002e-10
0, 0, 260, 3.171961859838035e-10
0, 0, 261, 3.899786882310963e-10
0, 0, 262, 2.536467424985034e-10
0, 0, 263, 2.825931433303452e-10
0, 0, 264, 2.093679674075588e-10
0, 0, 265, 1.788450360029614e-10
0, 0, 266, 3.038177487368898e-10
0, 0, 267, 2.947105615103141e-10
0, 0, 268, 2.985164337943047e-10
0, 0, 269, 2.433243606603241e-10
0, 0, 270, 2.394827947060918e-10
0, 0, 271, 3.015900584824038e-10
0, 0, 272, 2.327214393416099e-10
0, 0, 273, 2.335597548697166e-10
0, 0, 274, 2.556700406941559e-10
0, 0, 275, 2.470321724956648e-10
0, 0, 276, 2.452431868693594e-10
0, 0, 277, 2.737959303722448e-10
0, 0, 278, 2.31310803844309e-10
0, 0, 279, 2.091350703725681e-10
0, 0, 280, 1.866174714759694e-10
0, 0, 281, 2.111364000301208e-10
0, 0, 282, 3.077686994146234e-10
0, 0, 283, 3.061326192543845e-10
0, 0, 284, 1.827567680523501e-10
0, 0, 285, 2.829538270354703e-10
0, 0, 286, 2.986796643345002e-10
0, 0, 287, 2.685247579847783e-10
0, 0, 288, 1.587486114784653e-10
0, 0, 289, 2.140893851088066e-10
0, 0, 290, 2.374739016541838e-10
0, 0, 291, 2.731941339817467e-10
0, 0, 292, 3.127232361954668e-10
0, 0, 293, 2.640668239628496e-10
0, 0, 294, 1.68072292194843e-10
0, 0, 295, 2.253938008456302e-10
0, 0, 296, 2.163391271681192e-10
0, 0, 297, 1.896888618402315e-10
0, 0, 298, 1.99298147429694e-10
0, 0, 299, 1.575522212693414e-10
0, 0, 300, 2.638792795384148e-10
