# TOPAS Version: 3.9
# Parameter File: pristine_temp.txt
# Results for scorer: DosePhantom
# Scored in component: Phantom
# X in 1 bin  of 30 cm
# Y in 1 bin  of 30 cm
# Z in 301 bins of 0.0996678 cm
# DoseToMedium ( Gy ) : Sum   
0, 0, 0, 1.040889188175242e-07
0, 0, 1, 1.067833892420822e-07
0, 0, 2, 1.064458032828952e-07
0, 0, 3, 1.081123031099196e-07
0, 0, 4, 1.083317258121497e-07
0, 0, 5, 1.084721859001547e-07
0, 0, 6, 1.097184494369685e-07
0, 0, 7, 1.102195241742265e-07
0, 0, 8, 1.104796822914977e-07
0, 0, 9, 1.106584832655244e-07
0, 0, 10, 1.116848906690393e-07
0, 0, 11, 1.120987676017648e-07
0, 0, 12, 1.121625032851625e-07
0, 0, 13, 1.129091700136087e-07
0, 0, 14, 1.132843223672353e-07
0, 0, 15, 1.134572116257004e-07
0, 0, 16, 1.143253598456795e-07
0, 0, 17, 1.141088077361019e-07
0, 0, 18, 1.149834503166858e-07
0, 0, 19, 1.15267830835819e-07
0, 0, 20, 1.154001338932176e-07
0, 0, 21, 1.161849212394372e-07
0, 0, 22, 1.16532397953506e-07
0, 0, 23, 1.176175388195588e-07
0, 0, 24, 1.179026156705731e-07
0, 0, 25, 1.180567323899595e-07
0, 0, 26, 1.18257723613624e-07
0, 0, 27, 1.190993543787044e-07
0, 0, 28, 1.19602546533315e-07
0, 0, 29, 1.196412853232687e-07
0, 0, 30, 1.201073587253632e-07
0, 0, 31, 1.201809425310785e-07
0, 0, 32, 1.207558000260178e-07
0, 0, 33, 1.212357574331691e-07
0, 0, 34, 1.218603671304663e-07
0, 0, 35, 1.229777240041585e-07
0, 0, 36, 1.227849537599468e-07
0, 0, 37, 1.236576281371526e-07
0, 0, 38, 1.238247335777487e-07
0, 0, 39, 1.241191398548835e-07
0, 0, 40, 1.25130299011289e-07
0, 0, 41, 1.256781985148336e-07
0, 0, 42, 1.261273183672529e-07
0, 0, 43, 1.261395112805985e-07
0, 0, 44, 1.265519529169978e-07
0, 0, 45, 1.269352765120857e-07
0, 0, 46, 1.273826768510844e-07
0, 0, 47, 1.27506595504201e-07
0, 0, 48, 1.282519406231586e-07
0, 0, 49, 1.292162608024228e-07
0, 0, 50, 1.294177707222843e-07
0, 0, 51, 1.290716369339862e-07
0, 0, 52, 1.296885159263184e-07
0, 0, 53, 1.303825598597541e-07
0, 0, 54, 1.311863968567195e-07
0, 0, 55, 1.319969840096746e-07
0, 0, 56, 1.326291396708257e-07
0, 0, 57, 1.333330601482885e-07
0, 0, 58, 1.335959609605197e-07
0, 0, 59, 1.338993058652704e-07
0, 0, 60, 1.346378155631101e-07
0, 0, 61, 1.35262538947245e-07
0, 0, 62, 1.353512857349415e-07
0, 0, 63, 1.360905201863716e-07
0, 0, 64, 1.366548048054028e-07
0, 0, 65, 1.372504954133547e-07
0, 0, 66, 1.375274081283351e-07
0, 0, 67, 1.381400807076716e-07
0, 0, 68, 1.390272217349775e-07
0, 0, 69, 1.395643778323574e-07
0, 0, 70, 1.40766942990922e-07
0, 0, 71, 1.417150627958108e-07
0, 0, 72, 1.414446018088711e-07
0, 0, 73, 1.426134872417606e-07
0, 0, 74, 1.432936471701396e-07
0, 0, 75, 1.454631899378001e-07
0, 0, 76, 1.458610370264068e-07
0, 0, 77, 1.461665988244931e-07
0, 0, 78, 1.463354948327833e-07
0, 0, 79, 1.476019093615832e-07
0, 0, 80, 1.481311784345962e-07
0, 0, 81, 1.488643732727724e-07
0, 0, 82, 1.495211563451448e-07
0, 0, 83, 1.513441532097204e-07
0, 0, 84, 1.519473045163977e-07
0, 0, 85, 1.528041195797414e-07
0, 0, 86, 1.542254466357917e-07
0, 0, 87, 1.548872887724428e-07
0, 0, 88, 1.559102429382619e-07
0, 0, 89, 1.571393397625798e-07
0, 0, 90, 1.582962738666538e-07
0, 0, 91, 1.596665839542766e-07
0, 0, 92, 1.606908739404389e-07
0, 0, 93, 1.621876748458817e-07
0, 0, 94, 1.632159865039284e-07
0, 0, 95, 1.647093625933849e-07
0, 0, 96, 1.652729508805351e-07
0, 0, 97, 1.672093077331738e-07
0, 0, 98, 1.688157738044538e-07
0, 0, 99, 1.704592165197027e-07
0, 0, 100, 1.716150990205279e-07
0, 0, 101, 1.734846648560051e-07
0, 0, 102, 1.749417748442283e-07
0, 0, 103, 1.773219082679134e-07
0, 0, 104, 1.791762684888454e-07
0, 0, 105, 1.80597282906092e-07
0, 0, 106, 1.8295855852557e-07
0, 0, 107, 1.850648914114572e-07
0, 0, 108, 1.871642467676793e-07
0, 0, 109, 1.900694570622363e-07
0, 0, 110, 1.92817807942447e-07
0, 0, 111, 1.959482034408211e-07
0, 0, 112, 1.983587623044514e-07
0, 0, 113, 2.017387288333339e-07
0, 0, 114, 2.046684812739841e-07
0, 0, 115, 2.081399088638136e-07
0, 0, 116, 2.118926971661494e-07
0, 0, 117, 2.158354419634634e-07
0, 0, 118, 2.209285696608276e-07
0, 0, 119, 2.255656710303811e-07
0, 0, 120, 2.311550844069643e-07
0, 0, 121, 2.372974421405161e-07
0, 0, 122, 2.432282144582132e-07
0, 0, 123, 2.494995783308696e-07
0, 0, 124, 2.565110150953842e-07
0, 0, 125, 2.658766220520192e-07
0, 0, 126, 2.759623498604924e-07
0, 0, 127, 2.863105521555553e-07
0, 0, 128, 2.994402450440248e-07
0, 0, 129, 3.155324748149724e-07
0, 0, 130, 3.345509469454555e-07
0, 0, 131, 3.585183208087983e-07
0, 0, 132, 3.882560690726677e-07
0, 0, 133, 4.274133971193805e-07
0, 0, 134, 4.804658146895235e-07
0, 0, 135, 5.382025278777292e-07
0, 0, 136, 5.501253781403648e-07
0, 0, 137, 4.680513256971608e-07
0, 0, 138, 3.010192415331403e-07
0, 0, 139, 1.382764622803734e-07
0, 0, 140, 4.213094939586881e-08
0, 0, 141, 8.417622154865967e-09
0, 0, 142, 1.365812574150027e-09
0, 0, 143, 8.089360292728998e-10
0, 0, 144, 5.645059975023514e-10
0, 0, 145, 7.087959663643062e-10
0, 0, 146, 8.019990782592856e-10
0, 0, 147, 7.126760293019174e-10
0, 0, 148, 6.840428223853223e-10
0, 0, 149, 6.948171482612508e-10
0, 0, 150, 5.016865811668936e-10
0, 0, 151, 4.533988462451788e-10
0, 0, 152, 4.166555434004238e-10
0, 0, 153, 4.311237755683095e-10
0, 0, 154, 5.272475789297459e-10
0, 0, 155, 5.538977054797556e-10
0, 0, 156, 3.727250730278797e-10
0, 0, 157, 5.638743361124909e-10
0, 0, 158, 4.74264016947501e-10
0, 0, 159, 5.198739772005467e-10
0, 0, 160, 4.49614789843622e-10
0, 0, 161, 4.445140089348598e-10
0, 0, 162, 3.824475736102784e-10
0, 0, 163, 4.013052390394733e-10
0, 0, 164, 3.946677984423275e-10
0, 0, 165, 4.101870509920502e-10
0, 0, 166, 5.203605324410887e-10
0, 0, 167, 4.490261773515414e-10
0, 0, 168, 4.575454182198513e-10
0, 0, 169, 5.320205942460632e-10
0, 0, 170, 4.261372643643568e-10
0, 0, 171, 4.765828287567331e-10
0, 0, 172, 5.080351694886076e-10
0, 0, 173, 5.413202108783821e-10
0, 0, 174, 5.657120327740017e-10
0, 0, 175, 5.672604053152952e-10
0, 0, 176, 4.136681275301868e-10
0, 0, 177, 4.422167909634567e-10
0, 0, 178, 5.46870160267332e-10
0, 0, 179, 4.618525561994602e-10
0, 0, 180, 4.629595595773139e-10
0, 0, 181, 4.626138916385969e-10
0, 0, 182, 5.505289002449842e-10
0, 0, 183, 4.42367253938869e-10
0, 0, 184, 4.761880334491764e-10
0, 0, 185, 4.98059204989687e-10
0, 0, 186, 4.477009318826219e-10
0, 0, 187, 4.007085496748886e-10
0, 0, 188, 5.495491839369038e-10
0, 0, 189, 5.105658118509382e-10
0, 0, 190, 3.776779167186106e-10
0, 0, 191, 4.561113986500942e-10
0, 0, 192, 4.672205955458253e-10
0, 0, 193, 3.992064179225707e-10
0, 0, 194, 3.907572321271147e-10
0, 0, 195, 3.843998452879305e-10
0, 0, 196, 3.325069386495016e-10
0, 0, 197, 4.257434960130979e-10
0, 0, 198, 3.91703308677549e-10
0, 0, 199, 3.453242136686185e-10
0, 0, 200, 3.953058158590039e-10
0, 0, 201, 4.539187359320351e-10
0, 0, 202, 3.310592355809661e-10
0, 0, 203, 2.636351414952998e-10
0, 0, 204, 2.472732851810377e-10
0, 0, 205, 3.002448845101924e-10
0, 0, 206, 3.613400134661049e-10
0, 0, 207, 3.377125523673641e-10
0, 0, 208, 3.959750027870967e-10
0, 0, 209, 3.269045312226382e-10
0, 0, 210, 2.764980466807287e-10
0, 0, 211, 2.296379891797429e-10
0, 0, 212, 2.818791311476332e-10
0, 0, 213, 2.209035454558972e-10
0, 0, 214, 2.367824269988716e-10
0, 0, 215, 2.533641074720094e-10
0, 0, 216, 2.713395064191104e-10
0, 0, 217, 2.322167735879788e-10
0, 0, 218, 2.316097036381137e-10
0, 0, 219, 2.416007949257448e-10
0, 0, 220, 2.996893566642456e-10
0, 0, 221, 2.404535182076728e-10
0, 0, 222, 2.088422212942476e-10
0, 0, 223, 1.38467418087096e-10
0, 0, 224, 2.025237616498643e-10
0, 0, 225, 2.565820056421586e-10
0, 0, 226, 2.518487918212742e-10
0, 0, 227, 2.354928196890427e-10
0, 0, 228, 3.544104731911801e-10
0, 0, 229, 3.445837504223448e-10
0, 0, 230, 3.356666888887361e-10
0, 0, 231, 3.814031312998623e-10
0, 0, 232, 2.890227224217057e-10
0, 0, 233, 2.411193744666917e-10
0, 0, 234, 3.082825383859955e-10
0, 0, 235, 2.721834424512792e-10
0, 0, 236, 2.609588378721384e-10
0, 0, 237, 3.077436361298425e-10
0, 0, 238, 2.346617622439595e-10
0, 0, 239, 2.892007744392799e-10
0, 0, 240, 2.948992716689247e-10
0, 0, 241, 2.550556432723283e-10
0, 0, 242, 2.531047038623058e-10
0, 0, 243, 2.054121872596681e-10
0, 0, 244, 1.534249394197218e-10
0, 0, 245, 1.644715891258031e-10
0, 0, 246, 1.988001152586349e-10
0, 0, 247, 2.086885803054273e-10
0, 0, 248, 2.175978841556514e-10
0, 0, 249, 2.130629006558138e-10
0, 0, 250, 2.050725977920109e-10
0, 0, 251, 2.459665526810539e-10
0, 0, 252, 2.459168424451263e-10
0, 0, 253, 1.759532103351447e-10
0, 0, 254, 1.697582907578266e-10
0, 0, 255, 2.322325526327162e-10
0, 0, 256, 2.000964394177629e-10
0, 0, 257, 1.883687095194375e-10
0, 0, 258, 3.428054229370758e-10
0, 0, 259, 2.449637714896369e-10
0, 0, 260, 2.05275213494005e-10
0, 0, 261, 2.355730333025718e-10
0, 0, 262, 1.482127337526506e-10
0, 0, 263, 2.22053722631621e-10
0, 0, 264, 2.728350601000074e-10
0, 0, 265, 3.136195469988223e-10
0, 0, 266, 2.638317619929609e-10
0, 0, 267, 1.983492259327591e-10
0, 0, 268, 1.875808397500123e-10
0, 0, 269, 1.652881304048393e-10
0, 0, 270, 1.941762445278883e-10
0, 0, 271, 2.285504979715469e-10
0, 0, 272, 1.774123625786217e-10
0, 0, 273, 1.56209212232028e-10
0, 0, 274, 2.805154164509105e-10
0, 0, 275, 2.550548661162111e-10
0, 0, 276, 2.847440616626784e-10
0, 0, 277, 2.497766993236894e-10
0, 0, 278, 1.476407190947882e-10
0, 0, 279, 1.618684908333279e-10
0, 0, 280, 2.51197396217151e-10
0, 0, 281, 2.059180187474752e-10
0, 0, 282, 1.924362197369689e-10
0, 0, 283, 2.104088570042961e-10
0, 0, 284, 2.247903113650196e-10
0, 0, 285, 2.04073993814724e-10
0, 0, 286, 1.39449549130255e-10
0, 0, 287, 2.209536997810346e-10
0, 0, 288, 2.185929354192595e-10
0, 0, 289, 1.347216505021009e-10
0, 0, 290, 2.298116419385821e-10
0, 0, 291, 2.171577362375388e-10
0, 0, 292, 1.805947474897707e-10
0, 0, 293, 1.58058371946268e-10
0, 0, 294, 2.630785589374796e-10
0, 0, 295, 2.251886871418307e-10
0, 0, 296, 1.557814849340033e-10
0, 0, 297, 1.479519284863784e-10
0, 0, 298, 1.994006765260181e-10
0, 0, 299, 1.924482101456348e-10
0, 0, 300, 1.492366369371112e-10
