# TOPAS Version: 3.9
# Parameter File: pristine_temp.txt
# Results for scorer: DosePhantom
# Scored in component: Phantom
# X in 1 bin  of 30 cm
# Y in 1 bin  of 30 cm
# Z in 301 bins of 0.0996678 cm
# DoseToMedium ( Gy ) : Sum   
0, 0, 0, 1.03610510393537e-07
0, 0, 1, 1.061562500126456e-07
0, 0, 2, 1.061174543792731e-07
0, 0, 3, 1.070123474278262e-07
0, 0, 4, 1.078918714370047e-07
0, 0, 5, 1.083114895550352e-07
0, 0, 6, 1.091919799023344e-07
0, 0, 7, 1.092992576445795e-07
0, 0, 8, 1.094799273460012e-07
0, 0, 9, 1.099795881032151e-07
0, 0, 10, 1.109358009898642e-07
0, 0, 11, 1.114656953404847e-07
0, 0, 12, 1.113850487399759e-07
0, 0, 13, 1.124488804293833e-07
0, 0, 14, 1.124737067925707e-07
0, 0, 15, 1.128611728518081e-07
0, 0, 16, 1.129080118289494e-07
0, 0, 17, 1.137881824320175e-07
0, 0, 18, 1.142234111739526e-07
0, 0, 19, 1.144943908570895e-07
0, 0, 20, 1.150407840100343e-07
0, 0, 21, 1.155062889779401e-07
0, 0, 22, 1.15788218124635e-07
0, 0, 23, 1.166052285839214e-07
0, 0, 24, 1.162372385010713e-07
0, 0, 25, 1.168488665825862e-07
0, 0, 26, 1.171392725041187e-07
0, 0, 27, 1.176476587261277e-07
0, 0, 28, 1.183415605510163e-07
0, 0, 29, 1.18893574097001e-07
0, 0, 30, 1.194211733945849e-07
0, 0, 31, 1.194319025898949e-07
0, 0, 32, 1.198506112132236e-07
0, 0, 33, 1.204475950089545e-07
0, 0, 34, 1.211327571581933e-07
0, 0, 35, 1.212964662045124e-07
0, 0, 36, 1.214377221003815e-07
0, 0, 37, 1.229440158567741e-07
0, 0, 38, 1.230033745969195e-07
0, 0, 39, 1.234583919540455e-07
0, 0, 40, 1.238069131659358e-07
0, 0, 41, 1.24110982824277e-07
0, 0, 42, 1.242912617271941e-07
0, 0, 43, 1.246133223276047e-07
0, 0, 44, 1.250456307388959e-07
0, 0, 45, 1.250965055987763e-07
0, 0, 46, 1.264804154743615e-07
0, 0, 47, 1.269275031745565e-07
0, 0, 48, 1.272021421527825e-07
0, 0, 49, 1.276149248496949e-07
0, 0, 50, 1.283928980910787e-07
0, 0, 51, 1.28787675635067e-07
0, 0, 52, 1.29034219753521e-07
0, 0, 53, 1.301257270824863e-07
0, 0, 54, 1.304547794234168e-07
0, 0, 55, 1.306798651512509e-07
0, 0, 56, 1.312527331265301e-07
0, 0, 57, 1.308947332745447e-07
0, 0, 58, 1.31620083720918e-07
0, 0, 59, 1.322831622019294e-07
0, 0, 60, 1.33300801508085e-07
0, 0, 61, 1.337515840305059e-07
0, 0, 62, 1.35111548615896e-07
0, 0, 63, 1.348829812286567e-07
0, 0, 64, 1.352769203322168e-07
0, 0, 65, 1.356419971898504e-07
0, 0, 66, 1.363821269251275e-07
0, 0, 67, 1.369567002029726e-07
0, 0, 68, 1.375634468558928e-07
0, 0, 69, 1.386824948212961e-07
0, 0, 70, 1.391488098079208e-07
0, 0, 71, 1.401290603553207e-07
0, 0, 72, 1.40331579245867e-07
0, 0, 73, 1.414966277479834e-07
0, 0, 74, 1.419577131400729e-07
0, 0, 75, 1.427598732561819e-07
0, 0, 76, 1.436737875337712e-07
0, 0, 77, 1.44144834735016e-07
0, 0, 78, 1.451000315455531e-07
0, 0, 79, 1.455183706866592e-07
0, 0, 80, 1.467320771553204e-07
0, 0, 81, 1.474123649813919e-07
0, 0, 82, 1.480391631503153e-07
0, 0, 83, 1.492505816713674e-07
0, 0, 84, 1.506668354522844e-07
0, 0, 85, 1.509613412054023e-07
0, 0, 86, 1.516267218448775e-07
0, 0, 87, 1.533888109861437e-07
0, 0, 88, 1.538881093665623e-07
0, 0, 89, 1.545861749718824e-07
0, 0, 90, 1.558796327572054e-07
0, 0, 91, 1.572866636934123e-07
0, 0, 92, 1.580882837970421e-07
0, 0, 93, 1.592021732221838e-07
0, 0, 94, 1.609418802672735e-07
0, 0, 95, 1.618072644760105e-07
0, 0, 96, 1.631817525549195e-07
0, 0, 97, 1.645604044142601e-07
0, 0, 98, 1.658580970342882e-07
0, 0, 99, 1.667412590222739e-07
0, 0, 100, 1.686248367605003e-07
0, 0, 101, 1.699996516890678e-07
0, 0, 102, 1.71869871223862e-07
0, 0, 103, 1.730471552718882e-07
0, 0, 104, 1.745946462961001e-07
0, 0, 105, 1.768454183093127e-07
0, 0, 106, 1.791913604165529e-07
0, 0, 107, 1.807509448781275e-07
0, 0, 108, 1.826899733714527e-07
0, 0, 109, 1.8465833306891e-07
0, 0, 110, 1.871382977469693e-07
0, 0, 111, 1.902247390717093e-07
0, 0, 112, 1.928322888034018e-07
0, 0, 113, 1.951504913222379e-07
0, 0, 114, 1.979595225520825e-07
0, 0, 115, 2.010175563782468e-07
0, 0, 116, 2.041460618329438e-07
0, 0, 117, 2.086495811681743e-07
0, 0, 118, 2.124563991401374e-07
0, 0, 119, 2.166274981618699e-07
0, 0, 120, 2.209867773217411e-07
0, 0, 121, 2.254550395264232e-07
0, 0, 122, 2.315472045211209e-07
0, 0, 123, 2.358663806489858e-07
0, 0, 124, 2.429664220926497e-07
0, 0, 125, 2.494307409506291e-07
0, 0, 126, 2.569294395016186e-07
0, 0, 127, 2.648070278610248e-07
0, 0, 128, 2.74777988806818e-07
0, 0, 129, 2.854769434179616e-07
0, 0, 130, 2.98703440648751e-07
0, 0, 131, 3.150573775201337e-07
0, 0, 132, 3.334968994295195e-07
0, 0, 133, 3.565758106560679e-07
0, 0, 134, 3.866956035381008e-07
0, 0, 135, 4.274906757473218e-07
0, 0, 136, 4.800498345503001e-07
0, 0, 137, 5.32486865267856e-07
0, 0, 138, 5.432002012639714e-07
0, 0, 139, 4.675864033742982e-07
0, 0, 140, 3.062104099171847e-07
0, 0, 141, 1.414377095443342e-07
0, 0, 142, 4.39115233064058e-08
0, 0, 143, 9.175076698397788e-09
0, 0, 144, 1.766400692382319e-09
0, 0, 145, 8.233705939275637e-10
0, 0, 146, 5.440941586165593e-10
0, 0, 147, 5.44012224157342e-10
0, 0, 148, 7.047247230218545e-10
0, 0, 149, 6.887909131947367e-10
0, 0, 150, 5.777218148317331e-10
0, 0, 151, 5.827894833387859e-10
0, 0, 152, 6.490903925460145e-10
0, 0, 153, 6.252505735382385e-10
0, 0, 154, 6.349413772532841e-10
0, 0, 155, 6.050517309397208e-10
0, 0, 156, 7.574644800278918e-10
0, 0, 157, 7.085738662482299e-10
0, 0, 158, 7.831670312263839e-10
0, 0, 159, 5.839700945031723e-10
0, 0, 160, 5.762827992583652e-10
0, 0, 161, 4.645867579533558e-10
0, 0, 162, 7.030911963745723e-10
0, 0, 163, 5.47424883201586e-10
0, 0, 164, 5.140242120837968e-10
0, 0, 165, 5.06878261585797e-10
0, 0, 166, 6.331154489558344e-10
0, 0, 167, 5.985233975103199e-10
0, 0, 168, 4.858584090605689e-10
0, 0, 169, 4.21274320983045e-10
0, 0, 170, 4.308391976515225e-10
0, 0, 171, 5.548602688421056e-10
0, 0, 172, 4.759646565766218e-10
0, 0, 173, 5.21574006207004e-10
0, 0, 174, 6.622818404800057e-10
0, 0, 175, 5.793726054470483e-10
0, 0, 176, 4.174344203633495e-10
0, 0, 177, 5.268683822556852e-10
0, 0, 178, 4.95289143032096e-10
0, 0, 179, 5.108146683419079e-10
0, 0, 180, 6.065483115769155e-10
0, 0, 181, 4.961648869539204e-10
0, 0, 182, 4.120495333825858e-10
0, 0, 183, 5.146506554254415e-10
0, 0, 184, 4.411757625888413e-10
0, 0, 185, 3.882551502520926e-10
0, 0, 186, 3.641139056931308e-10
0, 0, 187, 4.885067350635097e-10
0, 0, 188, 4.195949143692701e-10
0, 0, 189, 4.337512293783874e-10
0, 0, 190, 4.86861329029864e-10
0, 0, 191, 4.987148471968794e-10
0, 0, 192, 3.513703494828491e-10
0, 0, 193, 3.660041991704333e-10
0, 0, 194, 4.231467398696509e-10
0, 0, 195, 4.904227024482566e-10
0, 0, 196, 4.006704412695683e-10
0, 0, 197, 4.05791261703925e-10
0, 0, 198, 3.757602284881756e-10
0, 0, 199, 3.521148095320115e-10
0, 0, 200, 3.938742665354766e-10
0, 0, 201, 2.998087056393928e-10
0, 0, 202, 4.480046611465838e-10
0, 0, 203, 4.119179441985921e-10
0, 0, 204, 4.143367593467673e-10
0, 0, 205, 3.997201181160648e-10
0, 0, 206, 2.619235384138108e-10
0, 0, 207, 3.060210973515609e-10
0, 0, 208, 3.201498788296675e-10
0, 0, 209, 3.110671442652091e-10
0, 0, 210, 3.287981276134389e-10
0, 0, 211, 2.918050800992944e-10
0, 0, 212, 2.900445161824194e-10
0, 0, 213, 3.910031187714935e-10
0, 0, 214, 3.720814212293533e-10
0, 0, 215, 3.728198860741827e-10
0, 0, 216, 3.35254879413327e-10
0, 0, 217, 3.391443514910719e-10
0, 0, 218, 3.054880515218628e-10
0, 0, 219, 3.540225890219517e-10
0, 0, 220, 3.224251698963343e-10
0, 0, 221, 4.270437614639633e-10
0, 0, 222, 3.21459664442969e-10
0, 0, 223, 3.983794127915274e-10
0, 0, 224, 3.032351869602934e-10
0, 0, 225, 3.016275007539093e-10
0, 0, 226, 3.271700688145529e-10
0, 0, 227, 2.324293812971945e-10
0, 0, 228, 3.009559546018892e-10
0, 0, 229, 3.66908364801688e-10
0, 0, 230, 3.12728926088468e-10
0, 0, 231, 2.776007201887865e-10
0, 0, 232, 3.125940339909761e-10
0, 0, 233, 2.992601166873499e-10
0, 0, 234, 2.869780246772535e-10
0, 0, 235, 2.323680692306596e-10
0, 0, 236, 2.488570460812412e-10
0, 0, 237, 2.191010567420548e-10
0, 0, 238, 2.797288234379636e-10
0, 0, 239, 2.263425419313236e-10
0, 0, 240, 2.663810561021052e-10
0, 0, 241, 2.720187131100005e-10
0, 0, 242, 2.699129530991939e-10
0, 0, 243, 3.200213705145671e-10
0, 0, 244, 3.58070101347252e-10
0, 0, 245, 3.281510341235361e-10
0, 0, 246, 3.021161099070468e-10
0, 0, 247, 2.91381307970795e-10
0, 0, 248, 1.960411832868658e-10
0, 0, 249, 2.490568029589468e-10
0, 0, 250, 2.860356396183761e-10
0, 0, 251, 2.390159459242369e-10
0, 0, 252, 2.579876867692121e-10
0, 0, 253, 2.46999448672014e-10
0, 0, 254, 1.730001975008832e-10
0, 0, 255, 1.462533844032166e-10
0, 0, 256, 2.100028900775541e-10
0, 0, 257, 1.956134004776899e-10
0, 0, 258, 2.059553222411026e-10
0, 0, 259, 1.775181945884441e-10
0, 0, 260, 2.676819044200585e-10
0, 0, 261, 2.082340549991457e-10
0, 0, 262, 2.792977515930772e-10
0, 0, 263, 2.382862240857264e-10
0, 0, 264, 1.666076027140306e-10
0, 0, 265, 1.81636289342535e-10
0, 0, 266, 1.906041990906715e-10
0, 0, 267, 2.358452877437855e-10
0, 0, 268, 2.672196075526045e-10
0, 0, 269, 2.124547759940754e-10
0, 0, 270, 1.701041529855729e-10
0, 0, 271, 2.150930683564312e-10
0, 0, 272, 1.766411045212024e-10
0, 0, 273, 1.791085196822806e-10
0, 0, 274, 2.328135600970782e-10
0, 0, 275, 1.758131834561638e-10
0, 0, 276, 2.142228339163665e-10
0, 0, 277, 2.226666767635166e-10
0, 0, 278, 2.031975143701459e-10
0, 0, 279, 1.665453192023492e-10
0, 0, 280, 2.029628132227401e-10
0, 0, 281, 1.759237755472043e-10
0, 0, 282, 1.37500663632828e-10
0, 0, 283, 2.572783375232035e-10
0, 0, 284, 1.791094217384881e-10
0, 0, 285, 1.583107950287044e-10
0, 0, 286, 1.489847273328238e-10
0, 0, 287, 2.415877775607811e-10
0, 0, 288, 1.597373899819843e-10
0, 0, 289, 2.047720049080937e-10
0, 0, 290, 1.154646378509483e-10
0, 0, 291, 1.062789439787437e-10
0, 0, 292, 1.39590644598897e-10
0, 0, 293, 1.632802920648047e-10
0, 0, 294, 1.842208746660745e-10
0, 0, 295, 2.398121978774981e-10
0, 0, 296, 1.838934005071735e-10
0, 0, 297, 1.776656460839021e-10
0, 0, 298, 3.027853523462909e-10
0, 0, 299, 2.355455552827124e-10
0, 0, 300, 2.35219260735775e-10
