# TOPAS Version: 3.9
# Parameter File: pristine_temp.txt
# Results for scorer: DosePhantom
# Scored in component: Phantom
# X in 1 bin  of 30 cm
# Y in 1 bin  of 30 cm
# Z in 301 bins of 0.0996678 cm
# DoseToMedium ( Gy ) : Sum   
0, 0, 0, 1.010637546983162e-07
0, 0, 1, 1.029452008083354e-07
0, 0, 2, 1.032366938602536e-07
0, 0, 3, 1.042229200720612e-07
0, 0, 4, 1.047765465500561e-07
0, 0, 5, 1.053916989235404e-07
0, 0, 6, 1.061049701434058e-07
0, 0, 7, 1.066914165903654e-07
0, 0, 8, 1.067823589551153e-07
0, 0, 9, 1.069006643206194e-07
0, 0, 10, 1.072912780841762e-07
0, 0, 11, 1.076810178801679e-07
0, 0, 12, 1.082167244703669e-07
0, 0, 13, 1.085306564618804e-07
0, 0, 14, 1.08691949662898e-07
0, 0, 15, 1.091320740442825e-07
0, 0, 16, 1.093277504082835e-07
0, 0, 17, 1.102810074371519e-07
0, 0, 18, 1.108474592115272e-07
0, 0, 19, 1.105885232277615e-07
0, 0, 20, 1.111981902113257e-07
0, 0, 21, 1.115626275804971e-07
0, 0, 22, 1.122322714763868e-07
0, 0, 23, 1.127338720152693e-07
0, 0, 24, 1.138065854888737e-07
0, 0, 25, 1.130869833332326e-07
0, 0, 26, 1.133305360667691e-07
0, 0, 27, 1.141017804684452e-07
0, 0, 28, 1.137431837605618e-07
0, 0, 29, 1.15047932069956e-07
0, 0, 30, 1.148584232169014e-07
0, 0, 31, 1.152245019397924e-07
0, 0, 32, 1.147845765103739e-07
0, 0, 33, 1.154535027581005e-07
0, 0, 34, 1.159903675329588e-07
0, 0, 35, 1.169444061588365e-07
0, 0, 36, 1.1800494092995e-07
0, 0, 37, 1.174788692992479e-07
0, 0, 38, 1.181388356030766e-07
0, 0, 39, 1.180593613980818e-07
0, 0, 40, 1.18676339866397e-07
0, 0, 41, 1.192264136307131e-07
0, 0, 42, 1.197374928096906e-07
0, 0, 43, 1.197211787484775e-07
0, 0, 44, 1.207645965450865e-07
0, 0, 45, 1.212880818002304e-07
0, 0, 46, 1.21097542660209e-07
0, 0, 47, 1.216790934677192e-07
0, 0, 48, 1.222372389975135e-07
0, 0, 49, 1.226406993737328e-07
0, 0, 50, 1.22459908880046e-07
0, 0, 51, 1.228762727123467e-07
0, 0, 52, 1.233360507058023e-07
0, 0, 53, 1.237666538145277e-07
0, 0, 54, 1.248792074193261e-07
0, 0, 55, 1.253853127991533e-07
0, 0, 56, 1.258823658645269e-07
0, 0, 57, 1.258690218719494e-07
0, 0, 58, 1.262461779560908e-07
0, 0, 59, 1.269220177846364e-07
0, 0, 60, 1.270855136681348e-07
0, 0, 61, 1.275233216802008e-07
0, 0, 62, 1.28527858578309e-07
0, 0, 63, 1.287685762463298e-07
0, 0, 64, 1.289617301836188e-07
0, 0, 65, 1.287695567953051e-07
0, 0, 66, 1.296486829005516e-07
0, 0, 67, 1.307564048147469e-07
0, 0, 68, 1.309854695819013e-07
0, 0, 69, 1.315044784178099e-07
0, 0, 70, 1.313166393401843e-07
0, 0, 71, 1.325144722841287e-07
0, 0, 72, 1.324972487282139e-07
0, 0, 73, 1.330289336465285e-07
0, 0, 74, 1.341176556479695e-07
0, 0, 75, 1.345327262924911e-07
0, 0, 76, 1.354748917492543e-07
0, 0, 77, 1.365637558592425e-07
0, 0, 78, 1.365446848922147e-07
0, 0, 79, 1.373168032614558e-07
0, 0, 80, 1.376030382971294e-07
0, 0, 81, 1.387396650898154e-07
0, 0, 82, 1.39406921562113e-07
0, 0, 83, 1.394678434962771e-07
0, 0, 84, 1.402632960889605e-07
0, 0, 85, 1.408957217563511e-07
0, 0, 86, 1.416427437561651e-07
0, 0, 87, 1.424853479647936e-07
0, 0, 88, 1.433263889794034e-07
0, 0, 89, 1.44250321909567e-07
0, 0, 90, 1.449676148013168e-07
0, 0, 91, 1.452577151894729e-07
0, 0, 92, 1.461763758925372e-07
0, 0, 93, 1.474391098099659e-07
0, 0, 94, 1.48202445870993e-07
0, 0, 95, 1.497287627216792e-07
0, 0, 96, 1.496508872378399e-07
0, 0, 97, 1.500812345511804e-07
0, 0, 98, 1.515516458994171e-07
0, 0, 99, 1.524836648059136e-07
0, 0, 100, 1.536989344685935e-07
0, 0, 101, 1.547381032196427e-07
0, 0, 102, 1.557586273293055e-07
0, 0, 103, 1.568523089190421e-07
0, 0, 104, 1.579803949880443e-07
0, 0, 105, 1.593676444144876e-07
0, 0, 106, 1.599315311295868e-07
0, 0, 107, 1.620104512767284e-07
0, 0, 108, 1.635873587702008e-07
0, 0, 109, 1.637154269928942e-07
0, 0, 110, 1.650260799124226e-07
0, 0, 111, 1.66379493293789e-07
0, 0, 112, 1.683715140643471e-07
0, 0, 113, 1.702402698811056e-07
0, 0, 114, 1.718832010055849e-07
0, 0, 115, 1.73485815935237e-07
0, 0, 116, 1.753678446902995e-07
0, 0, 117, 1.774411373389739e-07
0, 0, 118, 1.791503621006996e-07
0, 0, 119, 1.812940411127784e-07
0, 0, 120, 1.835449836562475e-07
0, 0, 121, 1.861613014852992e-07
0, 0, 122, 1.887176921400169e-07
0, 0, 123, 1.908050961674235e-07
0, 0, 124, 1.941339462518954e-07
0, 0, 125, 1.960309958803919e-07
0, 0, 126, 1.991163713910282e-07
0, 0, 127, 2.019796880858848e-07
0, 0, 128, 2.05365708438876e-07
0, 0, 129, 2.097079061513796e-07
0, 0, 130, 2.130928038468483e-07
0, 0, 131, 2.179602773821898e-07
0, 0, 132, 2.221136838898019e-07
0, 0, 133, 2.27527664264926e-07
0, 0, 134, 2.320753793583208e-07
0, 0, 135, 2.386081519034633e-07
0, 0, 136, 2.448625764372991e-07
0, 0, 137, 2.525135016639979e-07
0, 0, 138, 2.607332589832367e-07
0, 0, 139, 2.702919061903231e-07
0, 0, 140, 2.826369041031285e-07
0, 0, 141, 2.955074478450115e-07
0, 0, 142, 3.104764232375601e-07
0, 0, 143, 3.290276993084262e-07
0, 0, 144, 3.517867241953354e-07
0, 0, 145, 3.818423124357651e-07
0, 0, 146, 4.189180060620856e-07
0, 0, 147, 4.687577472850535e-07
0, 0, 148, 5.147537081029441e-07
0, 0, 149, 5.232188868831145e-07
0, 0, 150, 4.531531203610939e-07
0, 0, 151, 3.148404914554703e-07
0, 0, 152, 1.651225147725199e-07
0, 0, 153, 6.21039575321447e-08
0, 0, 154, 1.573714136782201e-08
0, 0, 155, 3.28868332566401e-09
0, 0, 156, 1.158886209218224e-09
0, 0, 157, 8.448503008295916e-10
0, 0, 158, 7.814873193012772e-10
0, 0, 159, 7.159755011088009e-10
0, 0, 160, 9.023255476137138e-10
0, 0, 161, 7.669716528546644e-10
0, 0, 162, 6.622674630918368e-10
0, 0, 163, 7.00150160071189e-10
0, 0, 164, 7.589990302925287e-10
0, 0, 165, 6.544058628321636e-10
0, 0, 166, 5.625983567902892e-10
0, 0, 167, 6.024837850837628e-10
0, 0, 168, 5.611156539409023e-10
0, 0, 169, 7.217940134474077e-10
0, 0, 170, 6.441349120756001e-10
0, 0, 171, 6.176646416555798e-10
0, 0, 172, 6.736046720412503e-10
0, 0, 173, 6.545360919929522e-10
0, 0, 174, 5.541055947411166e-10
0, 0, 175, 5.49686296480445e-10
0, 0, 176, 5.285251680753333e-10
0, 0, 177, 4.903751849028026e-10
0, 0, 178, 6.030234644960331e-10
0, 0, 179, 5.645149347976997e-10
0, 0, 180, 5.717185058706775e-10
0, 0, 181, 4.99384700258787e-10
0, 0, 182, 5.001798975001748e-10
0, 0, 183, 4.281131837924335e-10
0, 0, 184, 4.650753115953421e-10
0, 0, 185, 4.796857355771067e-10
0, 0, 186, 4.953287224829239e-10
0, 0, 187, 5.659613888653325e-10
0, 0, 188, 6.777657324263942e-10
0, 0, 189, 3.970830053656726e-10
0, 0, 190, 5.140273207082657e-10
0, 0, 191, 5.512014178421509e-10
0, 0, 192, 6.105281280532893e-10
0, 0, 193, 4.974793355039253e-10
0, 0, 194, 4.754636684367597e-10
0, 0, 195, 5.326318830434218e-10
0, 0, 196, 3.883259824810636e-10
0, 0, 197, 4.321608626511875e-10
0, 0, 198, 4.2478959239034e-10
0, 0, 199, 4.651262708321724e-10
0, 0, 200, 4.560124777786001e-10
0, 0, 201, 3.870075926393213e-10
0, 0, 202, 3.537263260078305e-10
0, 0, 203, 4.311995760453158e-10
0, 0, 204, 4.711027123960321e-10
0, 0, 205, 3.716094654215851e-10
0, 0, 206, 4.016728338829267e-10
0, 0, 207, 3.627784461723849e-10
0, 0, 208, 4.198831282664628e-10
0, 0, 209, 4.388585050918437e-10
0, 0, 210, 3.800298686851278e-10
0, 0, 211, 3.951414195846326e-10
0, 0, 212, 4.632196293208324e-10
0, 0, 213, 5.882245246446871e-10
0, 0, 214, 3.188777297769008e-10
0, 0, 215, 4.50112752625742e-10
0, 0, 216, 3.592051378564776e-10
0, 0, 217, 3.513617730099838e-10
0, 0, 218, 3.405650761401091e-10
0, 0, 219, 2.837491352991606e-10
0, 0, 220, 4.882226845026594e-10
0, 0, 221, 3.597910580577235e-10
0, 0, 222, 4.272629750001755e-10
0, 0, 223, 3.944124471466637e-10
0, 0, 224, 3.571451745454368e-10
0, 0, 225, 4.457172131377973e-10
0, 0, 226, 3.474442400452915e-10
0, 0, 227, 3.030694584182925e-10
0, 0, 228, 4.600265723908592e-10
0, 0, 229, 4.154407928780302e-10
0, 0, 230, 4.093149708062072e-10
0, 0, 231, 4.510747608765797e-10
0, 0, 232, 3.726922936930777e-10
0, 0, 233, 2.959984479744548e-10
0, 0, 234, 4.063424319245001e-10
0, 0, 235, 3.151699179415601e-10
0, 0, 236, 2.900101547798073e-10
0, 0, 237, 3.821560012884362e-10
0, 0, 238, 3.82559817158068e-10
0, 0, 239, 2.642477070491367e-10
0, 0, 240, 2.692906453383159e-10
0, 0, 241, 3.878367627052626e-10
0, 0, 242, 3.074170917827246e-10
0, 0, 243, 3.062438636014519e-10
0, 0, 244, 3.738453713264533e-10
0, 0, 245, 3.388233860146528e-10
0, 0, 246, 2.967960321953456e-10
0, 0, 247, 3.308892049247447e-10
0, 0, 248, 3.459299791064296e-10
0, 0, 249, 2.888752015373086e-10
0, 0, 250, 2.759831529974832e-10
0, 0, 251, 2.781298802378984e-10
0, 0, 252, 1.952412814754112e-10
0, 0, 253, 2.664242715333387e-10
0, 0, 254, 2.839226076467583e-10
0, 0, 255, 2.664153064824148e-10
0, 0, 256, 3.161912953686397e-10
0, 0, 257, 2.617588923392589e-10
0, 0, 258, 2.796517184489034e-10
0, 0, 259, 2.860388592651475e-10
0, 0, 260, 2.558415979070361e-10
0, 0, 261, 2.880199967414399e-10
0, 0, 262, 2.616419858547658e-10
0, 0, 263, 1.829071755166112e-10
0, 0, 264, 2.062110898704006e-10
0, 0, 265, 2.138053761813197e-10
0, 0, 266, 3.435256523687258e-10
0, 0, 267, 3.196031217456152e-10
0, 0, 268, 2.363608475608459e-10
0, 0, 269, 2.054512393545593e-10
0, 0, 270, 2.080863537035071e-10
0, 0, 271, 1.731877835586815e-10
0, 0, 272, 2.277945609918675e-10
0, 0, 273, 2.319620329149785e-10
0, 0, 274, 2.062597870278182e-10
0, 0, 275, 2.350875050183276e-10
0, 0, 276, 2.856251068994453e-10
0, 0, 277, 2.241642566014335e-10
0, 0, 278, 2.939042897942556e-10
0, 0, 279, 1.738655192040639e-10
0, 0, 280, 2.647488617224525e-10
0, 0, 281, 2.393248377252633e-10
0, 0, 282, 2.670298981932717e-10
0, 0, 283, 2.361050244203966e-10
0, 0, 284, 2.58435328692741e-10
0, 0, 285, 1.995835580137495e-10
0, 0, 286, 2.095496554055387e-10
0, 0, 287, 2.10990086513263e-10
0, 0, 288, 2.049638236911733e-10
0, 0, 289, 2.445402769168936e-10
0, 0, 290, 2.111313207597831e-10
0, 0, 291, 1.960505785492117e-10
0, 0, 292, 1.392556764345798e-10
0, 0, 293, 1.793340476119454e-10
0, 0, 294, 1.737832516779392e-10
0, 0, 295, 1.686949191448406e-10
0, 0, 296, 2.374560270634873e-10
0, 0, 297, 2.546996780150579e-10
0, 0, 298, 1.685589029465362e-10
0, 0, 299, 1.927505793863915e-10
0, 0, 300, 1.18125106918221e-10
