# TOPAS Version: 3.9
# Parameter File: pristine_temp.txt
# Results for scorer: DosePhantom
# Scored in component: Phantom
# X in 1 bin  of 30 cm
# Y in 1 bin  of 30 cm
# Z in 301 bins of 0.0996678 cm
# DoseToMedium ( Gy ) : Sum   
0, 0, 0, 9.915241605540359e-08
0, 0, 1, 1.015767807643897e-07
0, 0, 2, 1.017497552879831e-07
0, 0, 3, 1.023879363515334e-07
0, 0, 4, 1.028826943638705e-07
0, 0, 5, 1.034236092323226e-07
0, 0, 6, 1.04116274712851e-07
0, 0, 7, 1.04453363292123e-07
0, 0, 8, 1.050349851539067e-07
0, 0, 9, 1.049004865194547e-07
0, 0, 10, 1.05345435486015e-07
0, 0, 11, 1.062796997075566e-07
0, 0, 12, 1.0651492488023e-07
0, 0, 13, 1.070223945021098e-07
0, 0, 14, 1.072199964369247e-07
0, 0, 15, 1.075884341616984e-07
0, 0, 16, 1.076814228895273e-07
0, 0, 17, 1.077932196835718e-07
0, 0, 18, 1.076615987471996e-07
0, 0, 19, 1.084661462869008e-07
0, 0, 20, 1.088358132506073e-07
0, 0, 21, 1.096239330422577e-07
0, 0, 22, 1.098857751458127e-07
0, 0, 23, 1.102368258898423e-07
0, 0, 24, 1.111181973101338e-07
0, 0, 25, 1.113415635245474e-07
0, 0, 26, 1.115368846171805e-07
0, 0, 27, 1.115755878799973e-07
0, 0, 28, 1.116163304004658e-07
0, 0, 29, 1.125347282027178e-07
0, 0, 30, 1.122326054314726e-07
0, 0, 31, 1.135229226179035e-07
0, 0, 32, 1.137047220822751e-07
0, 0, 33, 1.141649548230816e-07
0, 0, 34, 1.140019065815068e-07
0, 0, 35, 1.148000166040219e-07
0, 0, 36, 1.154892856902734e-07
0, 0, 37, 1.156401765456394e-07
0, 0, 38, 1.164319627378063e-07
0, 0, 39, 1.16201725575138e-07
0, 0, 40, 1.165818019899234e-07
0, 0, 41, 1.167947942803949e-07
0, 0, 42, 1.173352117689319e-07
0, 0, 43, 1.177026192067387e-07
0, 0, 44, 1.182628182050394e-07
0, 0, 45, 1.18231000101332e-07
0, 0, 46, 1.186961426924427e-07
0, 0, 47, 1.195114549545906e-07
0, 0, 48, 1.187419869097539e-07
0, 0, 49, 1.196677743564578e-07
0, 0, 50, 1.198541497160477e-07
0, 0, 51, 1.202230919261638e-07
0, 0, 52, 1.203233637170342e-07
0, 0, 53, 1.214707054941755e-07
0, 0, 54, 1.221474121848587e-07
0, 0, 55, 1.216337039977589e-07
0, 0, 56, 1.224737360416839e-07
0, 0, 57, 1.225377701530306e-07
0, 0, 58, 1.231359476605576e-07
0, 0, 59, 1.231743880225622e-07
0, 0, 60, 1.236157629591617e-07
0, 0, 61, 1.2469763532863e-07
0, 0, 62, 1.249796781621626e-07
0, 0, 63, 1.243970046971299e-07
0, 0, 64, 1.253785768540183e-07
0, 0, 65, 1.254755375157401e-07
0, 0, 66, 1.261902440319318e-07
0, 0, 67, 1.270629894634112e-07
0, 0, 68, 1.270821030630032e-07
0, 0, 69, 1.275071070949707e-07
0, 0, 70, 1.278736334597852e-07
0, 0, 71, 1.285623199009933e-07
0, 0, 72, 1.291269597913924e-07
0, 0, 73, 1.290615756488478e-07
0, 0, 74, 1.296273666184788e-07
0, 0, 75, 1.299924292652577e-07
0, 0, 76, 1.312417907683994e-07
0, 0, 77, 1.318261979577073e-07
0, 0, 78, 1.325699798826463e-07
0, 0, 79, 1.319421727430381e-07
0, 0, 80, 1.332250860741624e-07
0, 0, 81, 1.338541295581308e-07
0, 0, 82, 1.34345214064524e-07
0, 0, 83, 1.349843188336308e-07
0, 0, 84, 1.353868839260031e-07
0, 0, 85, 1.364891772936971e-07
0, 0, 86, 1.36840867526189e-07
0, 0, 87, 1.3751792948824e-07
0, 0, 88, 1.375184268681551e-07
0, 0, 89, 1.386995194252449e-07
0, 0, 90, 1.393299697838302e-07
0, 0, 91, 1.400798623762967e-07
0, 0, 92, 1.403798108867704e-07
0, 0, 93, 1.410021042147491e-07
0, 0, 94, 1.418422783672213e-07
0, 0, 95, 1.419536346247696e-07
0, 0, 96, 1.426690658945517e-07
0, 0, 97, 1.435868739463331e-07
0, 0, 98, 1.439066323882798e-07
0, 0, 99, 1.452521303235699e-07
0, 0, 100, 1.456042184599937e-07
0, 0, 101, 1.472427157978018e-07
0, 0, 102, 1.472028117177615e-07
0, 0, 103, 1.481248972368121e-07
0, 0, 104, 1.495831583042673e-07
0, 0, 105, 1.505366782339479e-07
0, 0, 106, 1.513616467718748e-07
0, 0, 107, 1.523504380429586e-07
0, 0, 108, 1.53602158547983e-07
0, 0, 109, 1.54152033360333e-07
0, 0, 110, 1.55356872255652e-07
0, 0, 111, 1.568634502291388e-07
0, 0, 112, 1.578882518060709e-07
0, 0, 113, 1.595231253759266e-07
0, 0, 114, 1.607110959866986e-07
0, 0, 115, 1.616952118865811e-07
0, 0, 116, 1.629090462529348e-07
0, 0, 117, 1.644398679445658e-07
0, 0, 118, 1.653015573310768e-07
0, 0, 119, 1.67383987559333e-07
0, 0, 120, 1.689192288267805e-07
0, 0, 121, 1.707497858660645e-07
0, 0, 122, 1.722110027913004e-07
0, 0, 123, 1.74138634179144e-07
0, 0, 124, 1.759066634576811e-07
0, 0, 125, 1.774706390733627e-07
0, 0, 126, 1.799226794219067e-07
0, 0, 127, 1.830737801356008e-07
0, 0, 128, 1.847798500875797e-07
0, 0, 129, 1.870004240345224e-07
0, 0, 130, 1.890698797524237e-07
0, 0, 131, 1.921617780453744e-07
0, 0, 132, 1.953027464196566e-07
0, 0, 133, 1.977095251959327e-07
0, 0, 134, 2.009417272574865e-07
0, 0, 135, 2.046658238441523e-07
0, 0, 136, 2.080313663554989e-07
0, 0, 137, 2.115360047127979e-07
0, 0, 138, 2.163335750537954e-07
0, 0, 139, 2.214368777231357e-07
0, 0, 140, 2.261115668034108e-07
0, 0, 141, 2.312933560233432e-07
0, 0, 142, 2.369512088762349e-07
0, 0, 143, 2.436580075482198e-07
0, 0, 144, 2.508366492293135e-07
0, 0, 145, 2.597702746243158e-07
0, 0, 146, 2.684994910850946e-07
0, 0, 147, 2.800270806346816e-07
0, 0, 148, 2.934780241048429e-07
0, 0, 149, 3.07991854242573e-07
0, 0, 150, 3.259299887758971e-07
0, 0, 151, 3.480243435660668e-07
0, 0, 152, 3.77450788846545e-07
0, 0, 153, 4.170469480868633e-07
0, 0, 154, 4.623358904609631e-07
0, 0, 155, 5.038695007897331e-07
0, 0, 156, 5.085088332634768e-07
0, 0, 157, 4.455083058019227e-07
0, 0, 158, 3.170297020460566e-07
0, 0, 159, 1.735839703087549e-07
0, 0, 160, 7.093491660725704e-08
0, 0, 161, 2.067604043531901e-08
0, 0, 162, 4.829529665073551e-09
0, 0, 163, 1.348155032054876e-09
0, 0, 164, 7.378138100477827e-10
0, 0, 165, 6.240386540845577e-10
0, 0, 166, 7.144818070514702e-10
0, 0, 167, 6.396287943744028e-10
0, 0, 168, 6.799688589964603e-10
0, 0, 169, 5.873438402304032e-10
0, 0, 170, 5.677566750073026e-10
0, 0, 171, 5.748188591780945e-10
0, 0, 172, 5.779540734884847e-10
0, 0, 173, 5.741345732168668e-10
0, 0, 174, 6.064611590694824e-10
0, 0, 175, 6.130127516712491e-10
0, 0, 176, 6.334361923876486e-10
0, 0, 177, 7.042700866932705e-10
0, 0, 178, 5.92661641984904e-10
0, 0, 179, 4.92830165566005e-10
0, 0, 180, 5.571784145175229e-10
0, 0, 181, 5.780966816359978e-10
0, 0, 182, 5.895119392640424e-10
0, 0, 183, 7.740549312629241e-10
0, 0, 184, 4.205141512780841e-10
0, 0, 185, 4.988625068591546e-10
0, 0, 186, 5.142787307121921e-10
0, 0, 187, 4.069412029572561e-10
0, 0, 188, 4.890011728875265e-10
0, 0, 189, 5.035196148917009e-10
0, 0, 190, 4.585267998624687e-10
0, 0, 191, 5.530117475061047e-10
0, 0, 192, 6.654847783948981e-10
0, 0, 193, 5.023700899720041e-10
0, 0, 194, 5.938005087635645e-10
0, 0, 195, 3.946751814254412e-10
0, 0, 196, 5.530562119382409e-10
0, 0, 197, 4.910187811901778e-10
0, 0, 198, 5.339020336947442e-10
0, 0, 199, 5.191977403562476e-10
0, 0, 200, 4.386135066258845e-10
0, 0, 201, 4.665872133102766e-10
0, 0, 202, 5.447167161776179e-10
0, 0, 203, 4.350158289145867e-10
0, 0, 204, 3.761242706179502e-10
0, 0, 205, 3.746256915793111e-10
0, 0, 206, 5.206696185311444e-10
0, 0, 207, 5.210056830406984e-10
0, 0, 208, 5.037316674894043e-10
0, 0, 209, 4.237155626363176e-10
0, 0, 210, 5.512649225991595e-10
0, 0, 211, 3.866072462166414e-10
0, 0, 212, 4.861235303188494e-10
0, 0, 213, 4.177237167279912e-10
0, 0, 214, 4.548379450852735e-10
0, 0, 215, 4.481989779314688e-10
0, 0, 216, 5.312645323662935e-10
0, 0, 217, 4.989965107782268e-10
0, 0, 218, 4.579777668212159e-10
0, 0, 219, 4.743876957924442e-10
0, 0, 220, 4.633352312932715e-10
0, 0, 221, 3.725178221447578e-10
0, 0, 222, 4.351571047944702e-10
0, 0, 223, 4.6784703888747e-10
0, 0, 224, 5.365036193083483e-10
0, 0, 225, 4.645197282382441e-10
0, 0, 226, 4.039073242534386e-10
0, 0, 227, 3.222864475294074e-10
0, 0, 228, 3.675598714281136e-10
0, 0, 229, 5.066901342942742e-10
0, 0, 230, 5.189753071732639e-10
0, 0, 231, 4.09801970135959e-10
0, 0, 232, 4.324237357078431e-10
0, 0, 233, 3.49958062528799e-10
0, 0, 234, 2.68697647465288e-10
0, 0, 235, 3.778395929465717e-10
0, 0, 236, 3.380577762168713e-10
0, 0, 237, 3.815028570830492e-10
0, 0, 238, 3.278529114858486e-10
0, 0, 239, 4.365675598805296e-10
0, 0, 240, 3.260602066124108e-10
0, 0, 241, 2.778965668692734e-10
0, 0, 242, 3.416988081372807e-10
0, 0, 243, 4.002903841726635e-10
0, 0, 244, 2.823138389729252e-10
0, 0, 245, 3.701318973536871e-10
0, 0, 246, 3.992947361641797e-10
0, 0, 247, 2.471511328927534e-10
0, 0, 248, 2.543200927629385e-10
0, 0, 249, 3.359454103790682e-10
0, 0, 250, 3.346252441804864e-10
0, 0, 251, 3.569403106418179e-10
0, 0, 252, 3.744318466392116e-10
0, 0, 253, 3.991059982499934e-10
0, 0, 254, 3.32617683396208e-10
0, 0, 255, 3.307104312622045e-10
0, 0, 256, 4.170055412089368e-10
0, 0, 257, 3.079983490472671e-10
0, 0, 258, 3.129546621849499e-10
0, 0, 259, 3.804231651916012e-10
0, 0, 260, 2.83979312287741e-10
0, 0, 261, 3.18316928371587e-10
0, 0, 262, 2.85751061701589e-10
0, 0, 263, 3.387478908489783e-10
0, 0, 264, 3.120761704611397e-10
0, 0, 265, 2.753211825190505e-10
0, 0, 266, 2.867983073251423e-10
0, 0, 267, 4.379000217991091e-10
0, 0, 268, 4.040085210821331e-10
0, 0, 269, 3.697419037607119e-10
0, 0, 270, 2.824318001692916e-10
0, 0, 271, 2.334073212484356e-10
0, 0, 272, 2.401356613557226e-10
0, 0, 273, 2.114960984123115e-10
0, 0, 274, 2.551641120618342e-10
0, 0, 275, 1.822460099498713e-10
0, 0, 276, 3.437208295764549e-10
0, 0, 277, 3.827073935536163e-10
0, 0, 278, 2.276280691715371e-10
0, 0, 279, 2.046217362217106e-10
0, 0, 280, 3.085048050355255e-10
0, 0, 281, 2.360843187609873e-10
0, 0, 282, 2.933728260323676e-10
0, 0, 283, 2.101942508936361e-10
0, 0, 284, 2.41753506102782e-10
0, 0, 285, 2.695296763555177e-10
0, 0, 286, 2.925494013705787e-10
0, 0, 287, 1.643751523783266e-10
0, 0, 288, 1.734231092065386e-10
0, 0, 289, 2.661458275987627e-10
0, 0, 290, 2.87395218734332e-10
0, 0, 291, 3.165684103745292e-10
0, 0, 292, 3.196599096533248e-10
0, 0, 293, 1.796496978956341e-10
0, 0, 294, 2.673059273927691e-10
0, 0, 295, 2.331931592269854e-10
0, 0, 296, 2.330766413205509e-10
0, 0, 297, 2.105177837607997e-10
0, 0, 298, 1.651377506961538e-10
0, 0, 299, 2.118817760132785e-10
0, 0, 300, 2.516977737343495e-10
