# TOPAS Version: 3.9
# Parameter File: pristine_temp.txt
# Results for scorer: DosePhantom
# Scored in component: Phantom
# X in 1 bin  of 30 cm
# Y in 1 bin  of 30 cm
# Z in 301 bins of 0.0996678 cm
# DoseToMedium ( Gy ) : Sum   
0, 0, 0, 9.85674759590438e-08
0, 0, 1, 1.0082205648132e-07
0, 0, 2, 1.010745478424724e-07
0, 0, 3, 1.018962692000969e-07
0, 0, 4, 1.024732014798246e-07
0, 0, 5, 1.031331535727986e-07
0, 0, 6, 1.040576833588602e-07
0, 0, 7, 1.042981239152141e-07
0, 0, 8, 1.043052719751358e-07
0, 0, 9, 1.051340987601179e-07
0, 0, 10, 1.061306917904403e-07
0, 0, 11, 1.057341307841853e-07
0, 0, 12, 1.06737644500754e-07
0, 0, 13, 1.069912087814373e-07
0, 0, 14, 1.064910719605905e-07
0, 0, 15, 1.074001048095852e-07
0, 0, 16, 1.075199236311164e-07
0, 0, 17, 1.080190301649964e-07
0, 0, 18, 1.085904273168126e-07
0, 0, 19, 1.097111947956364e-07
0, 0, 20, 1.107081999407455e-07
0, 0, 21, 1.103542359714993e-07
0, 0, 22, 1.101918059021045e-07
0, 0, 23, 1.109422029799134e-07
0, 0, 24, 1.111637573103508e-07
0, 0, 25, 1.11776166988875e-07
0, 0, 26, 1.120924224551345e-07
0, 0, 27, 1.119387107451075e-07
0, 0, 28, 1.124756607850941e-07
0, 0, 29, 1.132139075821215e-07
0, 0, 30, 1.135785439032588e-07
0, 0, 31, 1.137885021762486e-07
0, 0, 32, 1.143351013865868e-07
0, 0, 33, 1.14939879836129e-07
0, 0, 34, 1.155058839685807e-07
0, 0, 35, 1.162885894245846e-07
0, 0, 36, 1.163699181461197e-07
0, 0, 37, 1.162250811148624e-07
0, 0, 38, 1.172920107705977e-07
0, 0, 39, 1.170722114807177e-07
0, 0, 40, 1.181279074558006e-07
0, 0, 41, 1.187572209460086e-07
0, 0, 42, 1.185819158422419e-07
0, 0, 43, 1.191285079471527e-07
0, 0, 44, 1.196373204948031e-07
0, 0, 45, 1.202610633299628e-07
0, 0, 46, 1.203707569175094e-07
0, 0, 47, 1.206189779168199e-07
0, 0, 48, 1.209453301953545e-07
0, 0, 49, 1.216609746279573e-07
0, 0, 50, 1.225727714881941e-07
0, 0, 51, 1.225320289677256e-07
0, 0, 52, 1.229920911782756e-07
0, 0, 53, 1.232083661761862e-07
0, 0, 54, 1.236282969330205e-07
0, 0, 55, 1.245631295887506e-07
0, 0, 56, 1.250696044508004e-07
0, 0, 57, 1.260357578303228e-07
0, 0, 58, 1.268135179088858e-07
0, 0, 59, 1.26629089436392e-07
0, 0, 60, 1.267898426249303e-07
0, 0, 61, 1.282630535115459e-07
0, 0, 62, 1.291316493734485e-07
0, 0, 63, 1.294534541784742e-07
0, 0, 64, 1.293365272658775e-07
0, 0, 65, 1.299762288908823e-07
0, 0, 66, 1.302195045127519e-07
0, 0, 67, 1.308659562937464e-07
0, 0, 68, 1.31116465240666e-07
0, 0, 69, 1.325235672311464e-07
0, 0, 70, 1.328428709257423e-07
0, 0, 71, 1.328234162656372e-07
0, 0, 72, 1.344879194675741e-07
0, 0, 73, 1.343316853308352e-07
0, 0, 74, 1.351599223653466e-07
0, 0, 75, 1.363329431569582e-07
0, 0, 76, 1.369684810015315e-07
0, 0, 77, 1.381842480441264e-07
0, 0, 78, 1.387145402986789e-07
0, 0, 79, 1.392913162590048e-07
0, 0, 80, 1.400925526695573e-07
0, 0, 81, 1.41649636020702e-07
0, 0, 82, 1.425444366986994e-07
0, 0, 83, 1.430001077551424e-07
0, 0, 84, 1.440102721517178e-07
0, 0, 85, 1.451759175097322e-07
0, 0, 86, 1.462860694800838e-07
0, 0, 87, 1.470803994152448e-07
0, 0, 88, 1.481049878293561e-07
0, 0, 89, 1.490493559686001e-07
0, 0, 90, 1.503966302607296e-07
0, 0, 91, 1.516710312898795e-07
0, 0, 92, 1.529672744027266e-07
0, 0, 93, 1.5427218613695e-07
0, 0, 94, 1.553850381696975e-07
0, 0, 95, 1.57266271116896e-07
0, 0, 96, 1.585651858704296e-07
0, 0, 97, 1.594628713519342e-07
0, 0, 98, 1.612808802065047e-07
0, 0, 99, 1.635870034988329e-07
0, 0, 100, 1.647659644277155e-07
0, 0, 101, 1.659090145267328e-07
0, 0, 102, 1.69322674992145e-07
0, 0, 103, 1.70185614933871e-07
0, 0, 104, 1.723491749316963e-07
0, 0, 105, 1.75246668732143e-07
0, 0, 106, 1.773844928720791e-07
0, 0, 107, 1.795463191456292e-07
0, 0, 108, 1.828044418061836e-07
0, 0, 109, 1.841727197415821e-07
0, 0, 110, 1.87272789275994e-07
0, 0, 111, 1.914285405746341e-07
0, 0, 112, 1.942686225220314e-07
0, 0, 113, 1.984074486927057e-07
0, 0, 114, 2.023818126417609e-07
0, 0, 115, 2.067914834924522e-07
0, 0, 116, 2.11657749105143e-07
0, 0, 117, 2.183940495115166e-07
0, 0, 118, 2.235560003782666e-07
0, 0, 119, 2.297098831149924e-07
0, 0, 120, 2.380608634666714e-07
0, 0, 121, 2.452675857966824e-07
0, 0, 122, 2.55499145396243e-07
0, 0, 123, 2.668886338597076e-07
0, 0, 124, 2.805157350849186e-07
0, 0, 125, 2.961551217595115e-07
0, 0, 126, 3.155739136673219e-07
0, 0, 127, 3.40145987820506e-07
0, 0, 128, 3.737511349299893e-07
0, 0, 129, 4.18828221881995e-07
0, 0, 130, 4.733000196210924e-07
0, 0, 131, 5.041743520450837e-07
0, 0, 132, 4.564751350244478e-07
0, 0, 133, 3.131225412289496e-07
0, 0, 134, 1.472510575695196e-07
0, 0, 135, 4.556551402856712e-08
0, 0, 136, 9.391917465961797e-09
0, 0, 137, 1.67036173781554e-09
0, 0, 138, 7.318332051475807e-10
0, 0, 139, 6.109132644205317e-10
0, 0, 140, 5.186934770584628e-10
0, 0, 141, 5.606071162844728e-10
0, 0, 142, 6.161282595229522e-10
0, 0, 143, 6.265640228875213e-10
0, 0, 144, 5.833620253525851e-10
0, 0, 145, 5.206110542665954e-10
0, 0, 146, 4.666910191630791e-10
0, 0, 147, 5.308295469852453e-10
0, 0, 148, 5.957240256648788e-10
0, 0, 149, 5.795771640393355e-10
0, 0, 150, 6.395473595155465e-10
0, 0, 151, 5.952052184454715e-10
0, 0, 152, 4.311984103111399e-10
0, 0, 153, 6.066135926907634e-10
0, 0, 154, 4.623290084104781e-10
0, 0, 155, 6.017248921352802e-10
0, 0, 156, 6.780508932102691e-10
0, 0, 157, 7.481604780146256e-10
0, 0, 158, 5.149824455763508e-10
0, 0, 159, 5.735445451904297e-10
0, 0, 160, 5.824837834289553e-10
0, 0, 161, 5.333471997381878e-10
0, 0, 162, 4.691826371860941e-10
0, 0, 163, 3.950510751860037e-10
0, 0, 164, 4.957606547506543e-10
0, 0, 165, 4.835596922880825e-10
0, 0, 166, 4.596368008424889e-10
0, 0, 167, 3.698790718154044e-10
0, 0, 168, 4.171589462753644e-10
0, 0, 169, 3.093237332940646e-10
0, 0, 170, 5.333907204807531e-10
0, 0, 171, 6.259779361528217e-10
0, 0, 172, 5.017146698094166e-10
0, 0, 173, 4.919912810485982e-10
0, 0, 174, 5.000959091283619e-10
0, 0, 175, 5.163438565602974e-10
0, 0, 176, 4.073750226041284e-10
0, 0, 177, 4.894550875711445e-10
0, 0, 178, 5.59796320409589e-10
0, 0, 179, 5.151791215851631e-10
0, 0, 180, 3.970648254636444e-10
0, 0, 181, 4.848870194251731e-10
0, 0, 182, 4.852724333481717e-10
0, 0, 183, 3.054477226704932e-10
0, 0, 184, 3.884206012383373e-10
0, 0, 185, 5.097323119152009e-10
0, 0, 186, 4.969927802633833e-10
0, 0, 187, 4.457170466043436e-10
0, 0, 188, 3.025747985496707e-10
0, 0, 189, 4.252169449880938e-10
0, 0, 190, 3.89052540183954e-10
0, 0, 191, 4.448454660188617e-10
0, 0, 192, 3.989754082667218e-10
0, 0, 193, 4.305008294291923e-10
0, 0, 194, 4.564311706367619e-10
0, 0, 195, 3.039726803599763e-10
0, 0, 196, 4.127206909565473e-10
0, 0, 197, 3.563715988974536e-10
0, 0, 198, 2.678536004108167e-10
0, 0, 199, 4.000028641648612e-10
0, 0, 200, 3.568945139420521e-10
0, 0, 201, 3.739068776820176e-10
0, 0, 202, 2.943917887243686e-10
0, 0, 203, 3.90747822986981e-10
0, 0, 204, 2.802706400295563e-10
0, 0, 205, 2.745284000127413e-10
0, 0, 206, 2.515543051639924e-10
0, 0, 207, 3.087943512003477e-10
0, 0, 208, 4.225173821925665e-10
0, 0, 209, 2.643718299832898e-10
0, 0, 210, 3.033933382301512e-10
0, 0, 211, 3.527622915999729e-10
0, 0, 212, 3.911300172632082e-10
0, 0, 213, 4.286698773725561e-10
0, 0, 214, 3.679032356540546e-10
0, 0, 215, 3.520799485290382e-10
0, 0, 216, 3.768924894398396e-10
0, 0, 217, 3.658701119846341e-10
0, 0, 218, 3.921824531794016e-10
0, 0, 219, 3.266731052331551e-10
0, 0, 220, 3.254047031830964e-10
0, 0, 221, 2.793133502265732e-10
0, 0, 222, 3.285597627300518e-10
0, 0, 223, 2.939416487990343e-10
0, 0, 224, 2.866979431637162e-10
0, 0, 225, 3.255115066380654e-10
0, 0, 226, 2.8447474931248e-10
0, 0, 227, 2.21240345488205e-10
0, 0, 228, 2.448043434633007e-10
0, 0, 229, 2.287370570730474e-10
0, 0, 230, 1.571705404712631e-10
0, 0, 231, 1.762365531288168e-10
0, 0, 232, 3.330523634659244e-10
0, 0, 233, 3.20585918922589e-10
0, 0, 234, 2.149247446681102e-10
0, 0, 235, 2.541946653167315e-10
0, 0, 236, 3.010008908788109e-10
0, 0, 237, 3.241980017776314e-10
0, 0, 238, 2.952509348119747e-10
0, 0, 239, 2.991578929023575e-10
0, 0, 240, 2.390247721972827e-10
0, 0, 241, 1.865292365010873e-10
0, 0, 242, 2.653171293776069e-10
0, 0, 243, 1.845478492246144e-10
0, 0, 244, 2.290003880967006e-10
0, 0, 245, 2.856291869690608e-10
0, 0, 246, 3.140388782352233e-10
0, 0, 247, 2.626563966323658e-10
0, 0, 248, 1.539496863323109e-10
0, 0, 249, 1.514396663626627e-10
0, 0, 250, 1.948687045061348e-10
0, 0, 251, 2.644232610649055e-10
0, 0, 252, 1.861513582168683e-10
0, 0, 253, 2.565264112242005e-10
0, 0, 254, 2.248912583935336e-10
0, 0, 255, 1.796298249034933e-10
0, 0, 256, 3.096930489832062e-10
0, 0, 257, 2.447950175898939e-10
0, 0, 258, 1.937591337375366e-10
0, 0, 259, 1.693568202343343e-10
0, 0, 260, 2.567682733101151e-10
0, 0, 261, 2.039972912815102e-10
0, 0, 262, 3.4511801749737e-10
0, 0, 263, 1.794495801954454e-10
0, 0, 264, 2.155163547623573e-10
0, 0, 265, 2.099974499847335e-10
0, 0, 266, 1.847998143400531e-10
0, 0, 267, 2.909588681099251e-10
0, 0, 268, 3.000077408721324e-10
0, 0, 269, 2.088205719452674e-10
0, 0, 270, 1.925717085793366e-10
0, 0, 271, 2.131454873710581e-10
0, 0, 272, 2.007890659294631e-10
0, 0, 273, 2.400828424953261e-10
0, 0, 274, 1.799792676004941e-10
0, 0, 275, 1.227818263727087e-10
0, 0, 276, 2.013947897339108e-10
0, 0, 277, 1.523942916303866e-10
0, 0, 278, 1.573325497661315e-10
0, 0, 279, 1.474795841005516e-10
0, 0, 280, 1.74894584925589e-10
0, 0, 281, 2.257053710597035e-10
0, 0, 282, 1.968909618677017e-10
0, 0, 283, 1.836862051352028e-10
0, 0, 284, 1.588124909357447e-10
0, 0, 285, 1.19770707240896e-10
0, 0, 286, 1.517735520595309e-10
0, 0, 287, 1.888741385513981e-10
0, 0, 288, 1.429024398813539e-10
0, 0, 289, 1.21359117200015e-10
0, 0, 290, 1.583833342255758e-10
0, 0, 291, 9.109703269505331e-11
0, 0, 292, 1.644389763244547e-10
0, 0, 293, 1.65642846661207e-10
0, 0, 294, 1.107664307498091e-10
0, 0, 295, 1.279979178203661e-10
0, 0, 296, 1.250154563203765e-10
0, 0, 297, 1.2379426650444e-10
0, 0, 298, 9.427569142017589e-11
0, 0, 299, 9.890709085080829e-11
0, 0, 300, 1.029547627706684e-10
