# TOPAS Version: 3.9
# Parameter File: pristine_temp.txt
# Results for scorer: DosePhantom
# Scored in component: Phantom
# X in 1 bin  of 30 cm
# Y in 1 bin  of 30 cm
# Z in 301 bins of 0.0996678 cm
# DoseToMedium ( Gy ) : Sum   
0, 0, 0, 1.070993604912474e-07
0, 0, 1, 1.096873347705696e-07
0, 0, 2, 1.104302640442256e-07
0, 0, 3, 1.107724401094856e-07
0, 0, 4, 1.114688146230947e-07
0, 0, 5, 1.122811070786156e-07
0, 0, 6, 1.132279408011527e-07
0, 0, 7, 1.129889568574072e-07
0, 0, 8, 1.141156928952114e-07
0, 0, 9, 1.14773591519679e-07
0, 0, 10, 1.154157729388317e-07
0, 0, 11, 1.160051112947258e-07
0, 0, 12, 1.162630738349435e-07
0, 0, 13, 1.16969630425956e-07
0, 0, 14, 1.175486374904722e-07
0, 0, 15, 1.179079802682281e-07
0, 0, 16, 1.183451132646951e-07
0, 0, 17, 1.18630836709599e-07
0, 0, 18, 1.194538867821393e-07
0, 0, 19, 1.207414612736102e-07
0, 0, 20, 1.201539419071196e-07
0, 0, 21, 1.212461313571112e-07
0, 0, 22, 1.210381981309183e-07
0, 0, 23, 1.219493128701288e-07
0, 0, 24, 1.227859769414863e-07
0, 0, 25, 1.236403193161095e-07
0, 0, 26, 1.239722138279831e-07
0, 0, 27, 1.247807546178592e-07
0, 0, 28, 1.252151378139388e-07
0, 0, 29, 1.259114839058384e-07
0, 0, 30, 1.264826892111159e-07
0, 0, 31, 1.270400815656103e-07
0, 0, 32, 1.27407446370853e-07
0, 0, 33, 1.284265778167537e-07
0, 0, 34, 1.289348290356429e-07
0, 0, 35, 1.296034923825573e-07
0, 0, 36, 1.295965148528921e-07
0, 0, 37, 1.303703953681179e-07
0, 0, 38, 1.304452723616123e-07
0, 0, 39, 1.312247235318864e-07
0, 0, 40, 1.319551614642478e-07
0, 0, 41, 1.323800375985229e-07
0, 0, 42, 1.328259742194859e-07
0, 0, 43, 1.341662851928049e-07
0, 0, 44, 1.346389950640514e-07
0, 0, 45, 1.353215424160226e-07
0, 0, 46, 1.364927868507948e-07
0, 0, 47, 1.375118614532767e-07
0, 0, 48, 1.384419618943866e-07
0, 0, 49, 1.391403117168011e-07
0, 0, 50, 1.39212019689694e-07
0, 0, 51, 1.399407096869254e-07
0, 0, 52, 1.40463811248992e-07
0, 0, 53, 1.420715847189058e-07
0, 0, 54, 1.430561695769939e-07
0, 0, 55, 1.441184451778099e-07
0, 0, 56, 1.447071440452419e-07
0, 0, 57, 1.461149565784581e-07
0, 0, 58, 1.471321269264081e-07
0, 0, 59, 1.480698870182096e-07
0, 0, 60, 1.500322497349771e-07
0, 0, 61, 1.508814904127576e-07
0, 0, 62, 1.515718395239674e-07
0, 0, 63, 1.523049206753058e-07
0, 0, 64, 1.537945450991174e-07
0, 0, 65, 1.542739198612253e-07
0, 0, 66, 1.567867116136767e-07
0, 0, 67, 1.578715114192164e-07
0, 0, 68, 1.592359097912777e-07
0, 0, 69, 1.608797077778945e-07
0, 0, 70, 1.624299841296306e-07
0, 0, 71, 1.639884885662468e-07
0, 0, 72, 1.655260746247222e-07
0, 0, 73, 1.666351749918249e-07
0, 0, 74, 1.688918729314537e-07
0, 0, 75, 1.703996161950272e-07
0, 0, 76, 1.729281819962125e-07
0, 0, 77, 1.74441566969108e-07
0, 0, 78, 1.767758845971912e-07
0, 0, 79, 1.786823844440733e-07
0, 0, 80, 1.810092555842857e-07
0, 0, 81, 1.838896110939459e-07
0, 0, 82, 1.868618682010492e-07
0, 0, 83, 1.890957008754413e-07
0, 0, 84, 1.924320685020575e-07
0, 0, 85, 1.956645689915604e-07
0, 0, 86, 1.990030256138198e-07
0, 0, 87, 2.028906465056934e-07
0, 0, 88, 2.074711460409162e-07
0, 0, 89, 2.119058137850516e-07
0, 0, 90, 2.171280755192129e-07
0, 0, 91, 2.226478130751275e-07
0, 0, 92, 2.291960328193454e-07
0, 0, 93, 2.350543155671403e-07
0, 0, 94, 2.434939574413875e-07
0, 0, 95, 2.511493448764668e-07
0, 0, 96, 2.598745822979254e-07
0, 0, 97, 2.708992212774319e-07
0, 0, 98, 2.835826080627157e-07
0, 0, 99, 2.991256167206302e-07
0, 0, 100, 3.183393175731908e-07
0, 0, 101, 3.419432914597564e-07
0, 0, 102, 3.729854540779343e-07
0, 0, 103, 4.166728899690497e-07
0, 0, 104, 4.792352683580248e-07
0, 0, 105, 5.510765390681627e-07
0, 0, 106, 5.47195952549373e-07
0, 0, 107, 3.85536765179495e-07
0, 0, 108, 1.598750429820939e-07
0, 0, 109, 3.416313987258945e-08
0, 0, 110, 4.083217319816868e-09
0, 0, 111, 6.691630582977837e-10
0, 0, 112, 6.360205140332198e-10
0, 0, 113, 5.369565903023954e-10
0, 0, 114, 4.946429932317642e-10
0, 0, 115, 5.094865085375488e-10
0, 0, 116, 4.972516287615747e-10
0, 0, 117, 5.021270066407624e-10
0, 0, 118, 5.595607865949148e-10
0, 0, 119, 4.949820553434847e-10
0, 0, 120, 4.212241666579075e-10
0, 0, 121, 5.712679773672846e-10
0, 0, 122, 4.844336043419162e-10
0, 0, 123, 3.756545630118069e-10
0, 0, 124, 4.672484066325922e-10
0, 0, 125, 4.894352145790037e-10
0, 0, 126, 4.817892196307128e-10
0, 0, 127, 3.96891047804715e-10
0, 0, 128, 5.074539677352163e-10
0, 0, 129, 5.385983881112111e-10
0, 0, 130, 4.193658476037143e-10
0, 0, 131, 3.230748168991937e-10
0, 0, 132, 4.196128167155422e-10
0, 0, 133, 4.29878688201768e-10
0, 0, 134, 3.549282534542897e-10
0, 0, 135, 5.158878324529326e-10
0, 0, 136, 3.965785755344342e-10
0, 0, 137, 4.62994143024531e-10
0, 0, 138, 4.486397087166694e-10
0, 0, 139, 4.14152573346982e-10
0, 0, 140, 3.266108217214736e-10
0, 0, 141, 2.620204886394362e-10
0, 0, 142, 3.92112814440182e-10
0, 0, 143, 4.01706029551363e-10
0, 0, 144, 3.936513892632831e-10
0, 0, 145, 3.596347664114319e-10
0, 0, 146, 4.024376942801666e-10
0, 0, 147, 3.430544182059236e-10
0, 0, 148, 2.67299293810197e-10
0, 0, 149, 3.685693139576784e-10
0, 0, 150, 2.80454798273766e-10
0, 0, 151, 2.851448244189925e-10
0, 0, 152, 2.574074009498162e-10
0, 0, 153, 3.376230961471549e-10
0, 0, 154, 2.996359271811855e-10
0, 0, 155, 2.614334027040144e-10
0, 0, 156, 3.668237658072115e-10
0, 0, 157, 3.371701529086835e-10
0, 0, 158, 3.009454074831552e-10
0, 0, 159, 3.21176168993631e-10
0, 0, 160, 2.730138892736989e-10
0, 0, 161, 3.507003298874878e-10
0, 0, 162, 2.984060498700813e-10
0, 0, 163, 3.347654098373454e-10
0, 0, 164, 3.852934638004513e-10
0, 0, 165, 2.862145520587944e-10
0, 0, 166, 2.703213208832267e-10
0, 0, 167, 2.725536185632649e-10
0, 0, 168, 3.799845438301475e-10
0, 0, 169, 2.873549453941138e-10
0, 0, 170, 3.188647679230883e-10
0, 0, 171, 4.026876887497366e-10
0, 0, 172, 3.01289576620789e-10
0, 0, 173, 3.612119214846388e-10
0, 0, 174, 2.571042267973667e-10
0, 0, 175, 1.70204877969482e-10
0, 0, 176, 2.742244764597501e-10
0, 0, 177, 3.062082254423615e-10
0, 0, 178, 2.681668220816391e-10
0, 0, 179, 4.437733513995568e-10
0, 0, 180, 3.683724436598368e-10
0, 0, 181, 3.005987680992916e-10
0, 0, 182, 3.07477210359508e-10
0, 0, 183, 3.335767495560304e-10
0, 0, 184, 2.800948917247581e-10
0, 0, 185, 2.580001212670879e-10
0, 0, 186, 1.743567096257337e-10
0, 0, 187, 3.018743588434347e-10
0, 0, 188, 2.333038762181161e-10
0, 0, 189, 2.605353988105463e-10
0, 0, 190, 2.053160003123722e-10
0, 0, 191, 1.45862044664824e-10
0, 0, 192, 2.374642427138696e-10
0, 0, 193, 1.96555091647177e-10
0, 0, 194, 2.456786996063443e-10
0, 0, 195, 2.11322473409048e-10
0, 0, 196, 1.722923054225944e-10
0, 0, 197, 1.446180397657315e-10
0, 0, 198, 1.33406549696069e-10
0, 0, 199, 2.142401811511263e-10
0, 0, 200, 2.117610670149261e-10
0, 0, 201, 2.371477736407002e-10
0, 0, 202, 2.430313728041256e-10
0, 0, 203, 2.605823334889124e-10
0, 0, 204, 2.12155418233273e-10
0, 0, 205, 2.034840768105894e-10
0, 0, 206, 2.355860784231112e-10
0, 0, 207, 1.839998847730229e-10
0, 0, 208, 2.02562924767058e-10
0, 0, 209, 2.165188583980182e-10
0, 0, 210, 2.229892936966849e-10
0, 0, 211, 2.121869069338089e-10
0, 0, 212, 2.516895025728161e-10
0, 0, 213, 1.385131592757105e-10
0, 0, 214, 2.003689714147328e-10
0, 0, 215, 2.545710864332307e-10
0, 0, 216, 1.549318173754699e-10
0, 0, 217, 2.590970771265688e-10
0, 0, 218, 1.889904621688032e-10
0, 0, 219, 1.70509245611683e-10
0, 0, 220, 1.719457631832455e-10
0, 0, 221, 1.835582935649782e-10
0, 0, 222, 1.954568867867934e-10
0, 0, 223, 1.600730520356919e-10
0, 0, 224, 2.081075312077019e-10
0, 0, 225, 1.712065628156623e-10
0, 0, 226, 1.787633790995002e-10
0, 0, 227, 1.511359509764887e-10
0, 0, 228, 1.962100482089113e-10
0, 0, 229, 1.815540773275615e-10
0, 0, 230, 2.937923515577978e-10
0, 0, 231, 1.695214246755228e-10
0, 0, 232, 1.906345081792438e-10
0, 0, 233, 1.605656718695059e-10
0, 0, 234, 1.44821279968177e-10
0, 0, 235, 1.589012116332e-10
0, 0, 236, 1.275422545354843e-10
0, 0, 237, 1.721201375870507e-10
0, 0, 238, 1.43414474740311e-10
0, 0, 239, 1.62073701681642e-10
0, 0, 240, 1.275629046837423e-10
0, 0, 241, 2.107881647006593e-10
0, 0, 242, 2.180933905693294e-10
0, 0, 243, 2.042654101419572e-10
0, 0, 244, 1.659222481631417e-10
0, 0, 245, 1.32183236578598e-10
0, 0, 246, 1.862987264455995e-10
0, 0, 247, 1.747705313803749e-10
0, 0, 248, 1.693657020185313e-10
0, 0, 249, 1.925549719672404e-10
0, 0, 250, 1.454360937236387e-10
0, 0, 251, 1.536148153125083e-10
0, 0, 252, 1.82070844512161e-10
0, 0, 253, 1.26128760213895e-10
0, 0, 254, 1.731488008527293e-10
0, 0, 255, 1.299478996630299e-10
0, 0, 256, 1.887013600931908e-10
0, 0, 257, 1.713300334937884e-10
0, 0, 258, 1.089162787737408e-10
0, 0, 259, 1.205783528579474e-10
0, 0, 260, 1.591829862368499e-10
0, 0, 261, 9.484012186700141e-11
0, 0, 262, 1.727976373100404e-10
0, 0, 263, 1.317833758784914e-10
0, 0, 264, 1.508520530713042e-10
0, 0, 265, 1.426156415185176e-10
0, 0, 266, 1.317855269356016e-10
0, 0, 267, 1.530422039097701e-10
0, 0, 268, 9.501317788096486e-11
0, 0, 269, 1.310219432948401e-10
0, 0, 270, 1.338393423866435e-10
0, 0, 271, 1.792321568938604e-10
0, 0, 272, 1.941132532490286e-10
0, 0, 273, 1.552407646876475e-10
0, 0, 274, 1.384278386362681e-10
0, 0, 275, 1.566132640240525e-10
0, 0, 276, 1.062257434791825e-10
0, 0, 277, 1.348016837043886e-10
0, 0, 278, 1.103777069744183e-10
0, 0, 279, 1.278440686647286e-10
0, 0, 280, 2.695520473494639e-10
0, 0, 281, 2.312696006923076e-10
0, 0, 282, 2.377537333675406e-10
0, 0, 283, 1.527490911534812e-10
0, 0, 284, 1.38168171348596e-10
0, 0, 285, 9.677517120998402e-11
0, 0, 286, 1.554651130053486e-10
0, 0, 287, 1.431918056349346e-10
0, 0, 288, 1.456154502532669e-10
0, 0, 289, 1.142750824523198e-10
0, 0, 290, 1.410003225288392e-10
0, 0, 291, 9.730393574214347e-11
0, 0, 292, 8.998717743180507e-11
0, 0, 293, 1.101553015470103e-10
0, 0, 294, 9.952350749076189e-11
0, 0, 295, 9.133513390047199e-11
0, 0, 296, 1.571420354951059e-10
0, 0, 297, 8.17340500836039e-11
0, 0, 298, 8.78561529082944e-11
0, 0, 299, 9.300725467564774e-11
0, 0, 300, 1.428060447672408e-10
