# TOPAS Version: 3.9
# Parameter File: pristine_temp.txt
# Results for scorer: DosePhantom
# Scored in component: Phantom
# X in 1 bin  of 30 cm
# Y in 1 bin  of 30 cm
# Z in 301 bins of 0.0996678 cm
# DoseToMedium ( Gy ) : Sum   
0, 0, 0, 1.030198006901628e-07
0, 0, 1, 1.05252226489938e-07
0, 0, 2, 1.061860075424192e-07
0, 0, 3, 1.064399484107525e-07
0, 0, 4, 1.070272190872856e-07
0, 0, 5, 1.086658230065041e-07
0, 0, 6, 1.086419487705825e-07
0, 0, 7, 1.093722943323883e-07
0, 0, 8, 1.094921415756289e-07
0, 0, 9, 1.107452973769796e-07
0, 0, 10, 1.103045050854234e-07
0, 0, 11, 1.1105402109024e-07
0, 0, 12, 1.116923371569101e-07
0, 0, 13, 1.121506016943385e-07
0, 0, 14, 1.128487241430776e-07
0, 0, 15, 1.128778635006711e-07
0, 0, 16, 1.128217377299734e-07
0, 0, 17, 1.13746665419967e-07
0, 0, 18, 1.14258270400569e-07
0, 0, 19, 1.156469906504753e-07
0, 0, 20, 1.159718081567007e-07
0, 0, 21, 1.157095042003675e-07
0, 0, 22, 1.16538338090777e-07
0, 0, 23, 1.168370147297537e-07
0, 0, 24, 1.176329860186343e-07
0, 0, 25, 1.178518829192399e-07
0, 0, 26, 1.180918332011061e-07
0, 0, 27, 1.183911138014082e-07
0, 0, 28, 1.187371694300055e-07
0, 0, 29, 1.19992648706102e-07
0, 0, 30, 1.200992443273208e-07
0, 0, 31, 1.207092168442614e-07
0, 0, 32, 1.21874606406891e-07
0, 0, 33, 1.219688670062169e-07
0, 0, 34, 1.225214276701081e-07
0, 0, 35, 1.229449821948947e-07
0, 0, 36, 1.228509347583895e-07
0, 0, 37, 1.23607065916076e-07
0, 0, 38, 1.235663233956075e-07
0, 0, 39, 1.245288245854681e-07
0, 0, 40, 1.250626269211352e-07
0, 0, 41, 1.252099224302583e-07
0, 0, 42, 1.254938410966133e-07
0, 0, 43, 1.265802040961717e-07
0, 0, 44, 1.265074160983204e-07
0, 0, 45, 1.279658476960321e-07
0, 0, 46, 1.277705479196811e-07
0, 0, 47, 1.286686881485366e-07
0, 0, 48, 1.287955484485792e-07
0, 0, 49, 1.297055547411219e-07
0, 0, 50, 1.307773374037424e-07
0, 0, 51, 1.306482175778001e-07
0, 0, 52, 1.308456347715037e-07
0, 0, 53, 1.310315695945974e-07
0, 0, 54, 1.327109657722758e-07
0, 0, 55, 1.331670915760697e-07
0, 0, 56, 1.336777160076963e-07
0, 0, 57, 1.357444148197828e-07
0, 0, 58, 1.35824492986103e-07
0, 0, 59, 1.364465163078421e-07
0, 0, 60, 1.371142559492e-07
0, 0, 61, 1.389847454902338e-07
0, 0, 62, 1.391223349855863e-07
0, 0, 63, 1.39373540264387e-07
0, 0, 64, 1.406512382118308e-07
0, 0, 65, 1.419948603142984e-07
0, 0, 66, 1.419913076006196e-07
0, 0, 67, 1.436619783135029e-07
0, 0, 68, 1.449827635724432e-07
0, 0, 69, 1.444597756972144e-07
0, 0, 70, 1.461686309767174e-07
0, 0, 71, 1.474919884003612e-07
0, 0, 72, 1.48537012023553e-07
0, 0, 73, 1.499453361475389e-07
0, 0, 74, 1.504904929561235e-07
0, 0, 75, 1.520152608236458e-07
0, 0, 76, 1.531554261191559e-07
0, 0, 77, 1.541202578891898e-07
0, 0, 78, 1.560094204933193e-07
0, 0, 79, 1.56965782593943e-07
0, 0, 80, 1.582871362870719e-07
0, 0, 81, 1.589240099519884e-07
0, 0, 82, 1.612434203934754e-07
0, 0, 83, 1.622659908662172e-07
0, 0, 84, 1.644648790488645e-07
0, 0, 85, 1.662412216774101e-07
0, 0, 86, 1.67546758689241e-07
0, 0, 87, 1.695706259852159e-07
0, 0, 88, 1.709435082375421e-07
0, 0, 89, 1.735765664534483e-07
0, 0, 90, 1.759786840693778e-07
0, 0, 91, 1.777699765170837e-07
0, 0, 92, 1.806294562811672e-07
0, 0, 93, 1.833982992138772e-07
0, 0, 94, 1.857792142345716e-07
0, 0, 95, 1.892819057047745e-07
0, 0, 96, 1.927533332946041e-07
0, 0, 97, 1.958636772769751e-07
0, 0, 98, 2.000176806404852e-07
0, 0, 99, 2.041070956693147e-07
0, 0, 100, 2.073636409249957e-07
0, 0, 101, 2.124026536876045e-07
0, 0, 102, 2.179686191539076e-07
0, 0, 103, 2.236940588318248e-07
0, 0, 104, 2.304764166183304e-07
0, 0, 105, 2.373939764765964e-07
0, 0, 106, 2.449160376727377e-07
0, 0, 107, 2.534777081564243e-07
0, 0, 108, 2.632848179473513e-07
0, 0, 109, 2.761885866675584e-07
0, 0, 110, 2.901275308886397e-07
0, 0, 111, 3.072378831348033e-07
0, 0, 112, 3.301476283468219e-07
0, 0, 113, 3.573785249955108e-07
0, 0, 114, 3.950420932596899e-07
0, 0, 115, 4.49024355475558e-07
0, 0, 116, 5.134358502800751e-07
0, 0, 117, 5.328423071659927e-07
0, 0, 118, 4.335840344538155e-07
0, 0, 119, 2.418605618004221e-07
0, 0, 120, 8.09656768296918e-08
0, 0, 121, 1.532043114593762e-08
0, 0, 122, 2.281942856896535e-09
0, 0, 123, 6.842453825761652e-10
0, 0, 124, 7.250639533218362e-10
0, 0, 125, 5.629566257603358e-10
0, 0, 126, 6.336740021595233e-10
0, 0, 127, 6.056407597654356e-10
0, 0, 128, 5.713294837228489e-10
0, 0, 129, 4.995926450312993e-10
0, 0, 130, 5.610719111537321e-10
0, 0, 131, 6.240700733961546e-10
0, 0, 132, 5.073028663815649e-10
0, 0, 133, 6.342778524626169e-10
0, 0, 134, 6.173002109477466e-10
0, 0, 135, 4.911809292629243e-10
0, 0, 136, 4.968921385462011e-10
0, 0, 137, 4.978302770020093e-10
0, 0, 138, 5.215914922196419e-10
0, 0, 139, 5.704089423019809e-10
0, 0, 140, 5.030148519935551e-10
0, 0, 141, 5.508188904990163e-10
0, 0, 142, 4.844045720098222e-10
0, 0, 143, 4.417154420011116e-10
0, 0, 144, 6.419618725495013e-10
0, 0, 145, 6.2069255291064e-10
0, 0, 146, 5.975453465367764e-10
0, 0, 147, 4.154163124603372e-10
0, 0, 148, 5.102960831671055e-10
0, 0, 149, 4.95409158141058e-10
0, 0, 150, 4.902025452224734e-10
0, 0, 151, 4.653422369660376e-10
0, 0, 152, 4.721464330614822e-10
0, 0, 153, 4.551494459104077e-10
0, 0, 154, 4.781301465861532e-10
0, 0, 155, 4.737030212531579e-10
0, 0, 156, 4.888847660033946e-10
0, 0, 157, 4.6276935061762e-10
0, 0, 158, 4.218567717373389e-10
0, 0, 159, 4.474340620230777e-10
0, 0, 160, 5.094974442343414e-10
0, 0, 161, 3.947095150724778e-10
0, 0, 162, 3.691963956775624e-10
0, 0, 163, 5.525588320232089e-10
0, 0, 164, 4.546276965999851e-10
0, 0, 165, 4.169182499236257e-10
0, 0, 166, 5.425990767804478e-10
0, 0, 167, 3.81020076600791e-10
0, 0, 168, 4.043968215849958e-10
0, 0, 169, 3.797802350380408e-10
0, 0, 170, 3.303019247002936e-10
0, 0, 171, 3.313030405571737e-10
0, 0, 172, 3.170928797313621e-10
0, 0, 173, 4.100209061164151e-10
0, 0, 174, 3.041022711425256e-10
0, 0, 175, 2.456324865729442e-10
0, 0, 176, 3.101184586906669e-10
0, 0, 177, 3.560602368501975e-10
0, 0, 178, 2.9939109524868e-10
0, 0, 179, 2.719612313129005e-10
0, 0, 180, 2.692876477361494e-10
0, 0, 181, 2.90678842107539e-10
0, 0, 182, 4.275544085441396e-10
0, 0, 183, 3.302878526234565e-10
0, 0, 184, 3.251771907297751e-10
0, 0, 185, 3.772553935910139e-10
0, 0, 186, 3.015052929544737e-10
0, 0, 187, 2.789398989566649e-10
0, 0, 188, 2.769676987757208e-10
0, 0, 189, 3.263070091907849e-10
0, 0, 190, 2.556936051778536e-10
0, 0, 191, 3.355440925112418e-10
0, 0, 192, 4.040480727773854e-10
0, 0, 193, 2.998985226820849e-10
0, 0, 194, 4.510944395796912e-10
0, 0, 195, 3.674096027417306e-10
0, 0, 196, 3.888336874702247e-10
0, 0, 197, 3.402216564030169e-10
0, 0, 198, 3.892371425173735e-10
0, 0, 199, 3.517830193811022e-10
0, 0, 200, 3.282555061101533e-10
0, 0, 201, 2.819353084326792e-10
0, 0, 202, 4.126793629044556e-10
0, 0, 203, 3.788995228681813e-10
0, 0, 204, 3.036288442892499e-10
0, 0, 205, 3.624195665796748e-10
0, 0, 206, 2.905239659956038e-10
0, 0, 207, 3.989649721702904e-10
0, 0, 208, 2.955514999403164e-10
0, 0, 209, 2.560842926602191e-10
0, 0, 210, 3.181048757738836e-10
0, 0, 211, 1.717302133830145e-10
0, 0, 212, 1.488260070736658e-10
0, 0, 213, 2.220854888879131e-10
0, 0, 214, 3.032572526429078e-10
0, 0, 215, 2.211022198661539e-10
0, 0, 216, 1.801978982696184e-10
0, 0, 217, 2.364211604266586e-10
0, 0, 218, 2.507631047254932e-10
0, 0, 219, 2.403459653521622e-10
0, 0, 220, 2.770317031330904e-10
0, 0, 221, 2.826420208990044e-10
0, 0, 222, 2.558914191652661e-10
0, 0, 223, 1.669285820682376e-10
0, 0, 224, 3.147649363377525e-10
0, 0, 225, 2.769516282974394e-10
0, 0, 226, 1.601922205995976e-10
0, 0, 227, 2.972914137089333e-10
0, 0, 228, 2.471106375079302e-10
0, 0, 229, 2.586749148214551e-10
0, 0, 230, 2.271752785887315e-10
0, 0, 231, 2.633488149772489e-10
0, 0, 232, 2.512756114292358e-10
0, 0, 233, 2.659436282304029e-10
0, 0, 234, 3.334154896617036e-10
0, 0, 235, 2.643306407090762e-10
0, 0, 236, 3.008152893446692e-10
0, 0, 237, 1.423468565242558e-10
0, 0, 238, 2.546400590386355e-10
0, 0, 239, 2.259700482287741e-10
0, 0, 240, 2.07244971184295e-10
0, 0, 241, 2.110057961690615e-10
0, 0, 242, 1.654514719673372e-10
0, 0, 243, 2.338205185026254e-10
0, 0, 244, 1.905162000381821e-10
0, 0, 245, 1.357214202135637e-10
0, 0, 246, 2.193077663914522e-10
0, 0, 247, 1.516462788675454e-10
0, 0, 248, 1.563395107817556e-10
0, 0, 249, 2.405534937910403e-10
0, 0, 250, 1.906824836916954e-10
0, 0, 251, 2.382502528597286e-10
0, 0, 252, 1.632429608156016e-10
0, 0, 253, 1.276971861585707e-10
0, 0, 254, 1.253242370991003e-10
0, 0, 255, 1.698245294390333e-10
0, 0, 256, 2.282172367751301e-10
0, 0, 257, 1.421871231865879e-10
0, 0, 258, 2.055571546311086e-10
0, 0, 259, 1.441229635634755e-10
0, 0, 260, 2.215538447147836e-10
0, 0, 261, 1.360142415363086e-10
0, 0, 262, 1.345431266397412e-10
0, 0, 263, 2.018965966632535e-10
0, 0, 264, 1.851236663963363e-10
0, 0, 265, 1.708221758489614e-10
0, 0, 266, 1.010765360298649e-10
0, 0, 267, 1.093136622887236e-10
0, 0, 268, 1.66598623785319e-10
0, 0, 269, 1.846098551805397e-10
0, 0, 270, 1.889356449069624e-10
0, 0, 271, 1.432637758425059e-10
0, 0, 272, 1.84753101706292e-10
0, 0, 273, 1.152599266029952e-10
0, 0, 274, 1.694224621706653e-10
0, 0, 275, 1.408920896617261e-10
0, 0, 276, 1.689916123703838e-10
0, 0, 277, 1.613262162747375e-10
0, 0, 278, 2.074273808272409e-10
0, 0, 279, 1.846535702121344e-10
0, 0, 280, 1.303556845799747e-10
0, 0, 281, 1.252671855134224e-10
0, 0, 282, 1.251080072872668e-10
0, 0, 283, 1.447629655038085e-10
0, 0, 284, 1.313383846124339e-10
0, 0, 285, 2.416018496376182e-10
0, 0, 286, 1.587785458667668e-10
0, 0, 287, 1.494160767334662e-10
0, 0, 288, 1.5926876484329e-10
0, 0, 289, 1.302546265291582e-10
0, 0, 290, 2.039721586077903e-10
0, 0, 291, 9.92916027175994e-11
0, 0, 292, 1.59317434245132e-10
0, 0, 293, 1.202453553394989e-10
0, 0, 294, 2.490516681774579e-10
0, 0, 295, 1.249337161501884e-10
0, 0, 296, 1.343933991870827e-10
0, 0, 297, 1.389795500905677e-10
0, 0, 298, 1.514104119859638e-10
0, 0, 299, 1.559216367130745e-10
0, 0, 300, 7.407593982655669e-11
